489;777;1097;1347;1634;1933;2169;2535;2867;3161;3442;3680;3986;4292;4631;4892;5175;5519;5750;6038;6344;6649;6943;7226;7546;7784;8073;8367;8718;8973;9260;9572;9876;10124;10411;10713;11180;11312;11605;11933;12226;12471;12764;13076;13396;13684;13994;14252;14546;14840;15134;15467;15741;16016;16299;16626;16887;17186;17486;17832;18064;18346;18666;18915;19209;19527;19848;20103;20385;20717;20954;21254;21555;21894;22156;22438;22719;23144;23328;23577;23884;24222;24465;24748;25068;25311;25606;25905;26217;26511;26793;27069;27363;27663;27958;28258;28596;28847;29128;29409;29697;30004;30309;30655;30897;31180;31467;31757;32050;32351;32707;32995;33245;33521;33847;34103;34402;34702;34996;35297;35579;35998;36156;36483;36731;37070;37332;37614;37902;38228;38477;38772;39071;39434;39660;39947;40212;40551;40799;41101;41550;41682;42004;42235;42535;42828;43134;43429;43717;44016;44282;44614;44863;45151;45452;45757;46039;46316;46630;46879;47161;47461;47755;48076;48327;48595;48923;49154;49447;49747;50191;50347;50618;50939;51216;51458;51752;52047;52385;52623;52899;53179;53462;53756;54090;54375;54670;54903;55184;55500;55892;56037;56336;56757;56907;57210;57513;57794;58023;58317;58644;58912;59200;59499;59784;60077;60339;60633;60940;61228;61515;61792;62229;62379;62668;62974;63307;63551;63827;64172;64413;64709;65041;65301;65584;65866;66143;66489;66714;66917;67253;67601;67846;68123;68468;68717;69011;69318;69668;69911;70187;70469;70809;71102;71370;71693;71970;72253;72534;72823;73161;73427;73728;74028;74374;74616;74888;75102;75464;75757;76058;76498;76672;76904;77198;77556;77785;78085;78368;78701;78945;79220;79547;79821;80121;80414;80730;81030;81273;81554;81890;82156;82467;82762;83043;83376;83614;83914;84276;84530;84831;85132;85426;85702;85996;86341;86619;86902;87229;87518;87773;88099;88381;88655;88961;89298;89542;89819;90147;90458;90719;91008;91358;91597;91883;92166;92486;92759;93065;93365;93653;93936;94223;94524;94819;95120;95430;95730;96006;96284;96571;96935;97221;97470;97764;98098;98346;98622;98910;99205;99504;99702;100051;100477;100620;100903;101231;101525;101791;102067;102419;102631;102909;103195;103497;103797;104085;104378;104712;104954;105236;105563;105836;106136;106436;106765;106995;107290;107616;107877;108171;108471;108825;109042;109317;109645;109899;110211;110500;110832;111076;111358;111646;111940;112234;112530;112834;113161;113399;113689;113969;114286;114595;114884;115121;115430;115668;115983;116262;116525;116783;117059;117335;117661;117886;118214;118445;118895;119045;119378;119627;119930;120192;120503;120970;121110;121422;121775;122048;122292;122585;122874;123177;123492;123781;124068;124338;124632;124960;125198;125484;125774;126088;126320;126596;126866;127153;127441;127872;128072;128204;128546;128819;129073;129356;129657;129914;130179;130436;130721;130935;131192;131456;131710;131973;132192;132535;132742;132995;133291;133509;133791;134095;134377;134590;134852;135139;135403;135623;135904;136250;136513;136745;137079;137318;137566;137851;138126;138488;138724;139003;139319;139617;139892;140193;140418;140717;141043;141269;141539;141859;142062;142365;142647;142865;143166;143377;143629;143880;144139;144402;144684;144954;145281;145500;145758;146023;146332;146569;146857;147172;147414;147691;148006;148252;148478;148804;149074;149330;149611;149881;150209;150420;150698;151031;151249;151537;151820;152090;152353;152629;152971;153200;153482;153764;154080;154311;154587;154902;155172;155415;155708;156050;156251;156513;156825;157025;157293;157678;157810;158091;158344;158715;158842;159094;159463;159598;159904;160126;160372;160669;160916;161117;161362;161665;162017;162155;162493;162728;162952;163256;163476;163745;164017;164305;164579;164889;165107;165398;165737;165876;166152;166455;166710;167001;167221;167530;167802;168030;168377;168658;168901;169183;169504;169735;170023;170317;170611;170834;171200;171521;171798;172029;172344;172649;172900;173186;173469;173745;174026;174296;174572;174868;175156;175443;175782;175996;176265;176547;176863;177100;177376;177645;178041;178173;178431;178689;178966;179236;179511;179781;180079;180292;180556;180865;181117;181405;181654;181926;182240;182600;182741;183040;183362;183637;183911;184344;184520;184758;185052;185326;185633;185951;186257;186596;186835;187116;187405;187697;187991;188296;188604;188880;189156;189451;189744;190057;190350;190650;190938;191227;191549;191796;192102;192408;192702;192979;193293;193549;193825;194262;194401;194707;194984;195307;195543;195818;196099;196457;196713;196975;197257;197572;197791;198066;198383;198691;198913;199196;199602;199775;200008;200276;200553;200846;201110;201392;201726;202051;202190;202460;202795;203018;203306;203607;203908;204139;204416;204836;205036;205343;205574;205902;206133;206411;206685;207007;207313;207548;207849;208120;208388;208672;208940;209373;209551;209805;210093;210409;210710;210921;211266;211635;211780;212126;212389;212653;212895;213177;213494;213770;214041;214305;214627;214886;215123;215399;215829;216014;216262;216552;216827;217120;217385;217804;217982;218243;218542;218820;219128;219360;219653;219934;220216;220517;220850;221132;221363;221640;221921;222353;222503;222791;223073;223343;223625;223895;224210;224509;224753;225043;225311;225626;225857;226134;226460;226692;226986;227327;227589;227871;228095;228403;228674;228935;229217;229499;229781;230050;230392;230741;230919;231192;231474;231795;232026;232307;232617;232905;233141;233425;233707;233988;234257;234528;234831;235080;235375;235668;235977;236238;236515;236840;237105;237343;237619;237906;238182;238464;238723;239048;239416;239556;239844;240116;240423;240661;240925;241170;241440;241715;242004;242297;242490;242749;243040;243292;243504;243763;244165;244321;244585;244849;245095;245398;245635;245975;246240;246475;246775;247051;247355;247585;247861;248144;248471;248772;248996;249277;249584;249823;250105;250393;250841;250994;251276;251596;251826;252109;252410;252710;252997;253280;253574;253856;254126;254396;254709;255014;255335;255572;255854;256143;256457;256694;256982;257282;257623;257824;258087;258338;258624;258896;259125;259396;259704;259934;260194;260510;260760;260973;261256;261533;261858;262089;262404;262663;262905;263182;263474;263795;264050;264334;264608;264949;265206;265474;265777;266066;266400;266649;266930;267220;267546;267800;268095;268422;268660;268942;269287;269493;269793;270087;270380;270665;270938;271209;271491;271785;272103;272360;272657;272955;273239;273508;273802;274094;274384;274679;274973;275278;275564;275833;276065;276364;276663;277082;277217;277504;277801;278089;278366;278638;278932;279248;279517;279690;280036;280370;280637;280936;281230;281518;281789;282071;282353;282681;282957;283253;283512;283789;284103;284345;284608;284898;285193;285491;285769;286050;286326;286641;286884;287185;287479;287772;288055;288342;288620;289057;289246;289495;289795;290089;290377;290648;290930;291229;291529;291817;292112;292464;292682;293106;293241;293546;293840;294278;294416;294704;295122;295308;295543;295838;296133;296478;296733;297003;297286;297561;297866;298160;298494;298793;299071;299320;299607;299939;300241;300485;300789;301118;301324;301607;301900;302221;302535;302827;303071;303358;303661;303915;304192;304481;304821;305192;305326;305637;305819;306201;306455;306767;307068;307400;307631;307861;308183;308467;308891;309197;309347;309635;309939;310208;310453;310746;311098;311355;311611;311905;312238;312489;312721;312954;313321;313665;313978;314203;314556;314819;315112;315372;315666;315962;316300;316532;316812;317101;317430;317682;317913;318324;318604;318891;319147;319339;319781;320068;320323;320611;320894;321128;321489;321786;322088;322400;322689;323118;323252;323540;323904;324172;324464;324761;325098;325380;325622;325906;326212;326523;326822;327105;327456;327688;327977;328275;328576;328882;329182;329459;329735;330096;330401;330641;330947;331273;331573;331828;332111;332403;332716;333176;333316;333593;333880;334170;334468;334769;335104;335426;335708;335939;336221;336550;336809;337103;337398;337691;337981;338268;338551;338845;339155;339450;339750;340039;340326;340654;340909;341266;341568;341804;342097;342379;342656;342976;343242;343536;343888;344178;344447;344678;344999;345247;345543;345848;346142;346463;346711;346922;347276;347576;347883;348217;348488;348770;349053;349340;349624;349935;350235;350523;350817;351099;351380;351648;351951;352240;352545;352827;353098;353385;353667;353954;354294;354555;354838;355132;355420;355695;355989;356328;356629;356884;357172;357443;357779;358018;358301;358605;358912;359239;359483;359751;360020;360310;360598;360887;361175;361462;361800;362007;362284;362573;362919;363147;363438;363725;363996;364316;364571;364917;365146;365458;365759;366069;366306;366605;366906;367232;367494;367800;368087;368359;368647;368947;369235;369540;369840;370130;370399;370720;370963;371252;371566;371828;372128;372410;372816;372948;373250;373549;373877;374132;374426;374715;375011;375306;375536;375881;376118;376468;376694;376983;377236;377518;377823;378129;378434;378727;379004;379275;379709;379857;380145;380433;380733;381022;381291;381619;381882;382143;382438;382709;383047;383301;383566;383860;384192;384442;384743;385037;385319;385651;385883;386235;386472;386827;387059;387364;387638;387980;388204;388487;388792;389154;389393;389682;390020;390263;390558;390858;391203;391509;391757;392039;392367;392615;392910;393211;393499;393799;394075;394350;394781;394932;395232;395527;395814;396139;396384;396672;396955;397253;397458;397836;398129;398413;398684;399016;399309;399559;399892;400187;400462;400723;400994;401281;401575;401887;402182;402520;402796;403052;403340;403628;403978;404279;404529;404879;405131;405373;405662;406007;406295;406545;406838;407127;407398;407685;407966;408323;408589;408867;409212;409477;409714;410002;410346;410664;410905;411195;411518;411798;412037;412335;412686;412935;413242;413523;413866;414127;414370;414677;414976;415303;415552;415824;416140;416392;416680;416980;417320;417632;417844;418114;418403;418696;418996;419286;419722;419912;420142;420419;420700;421060;421301;421600;421889;422143;422441;422729;422933;423287;423588;423893;424322;424508;424738;425011;425470;425679;425909;426202;426641;426807;427060;427355;427700;427949;428257;428531;428820;429172;429396;429689;429989;430335;430629;430871;431148;431436;431775;432037;432330;432779;433059;433201;433487;433765;433969;434340;434635;434958;435257;435493;435781;436069;436262;436645;436939;437278;437558;437796;438087;438547;438756;438985;439279;439601;439914;440138;440431;440750;441055;441363;441639;441971;442227;442528;442743;443286;443427;443721;444002;444354;444596;445040;445185;445486;445778;446125;446343;446619;446984;447231;447530;447814;448095;448417;448673;448954;449260;449566;449872;450156;450494;450724;451019;451324;451670;451958;452220;452503;452834;453115;453370;453673;453979;454272;454559;454765;455117;455450;455757;456012;456311;456600;456925;457170;457459;457763;458064;458287;458642;458929;459216;459504;459787;460093;460392;460687;460975;461326;461597;461844;462138;462478;462751;463039;463315;463591;463879;464176;464479;464786;465113;465379;465661;465938;466232;466574;466837;467132;467465;467708;467998;468285;468581;468891;469184;469491;469841;470060;470350;470655;470961;471261;471560;471843;472138;472425;472713;473017;473364;473619;473913;474183;474477;474805;475065;475360;475678;476011;476248;476535;476818;477124;477424;477725;478024;478319;478602;478870;479163;479454;479821;480139;480334;480650;480894;481181;481462;481808;482093;482368;482640;482915;483191;483474;483756;484106;484344;484625;484907;485183;485517;485771;486071;486378;486677;486966;487243;487542;487848;488137;488443;488760;489053;489342;489618;490072;490218;490520;490814;491119;491436;491694;491965;492265;492571;492883;493171;493454;493742;494030;494323;494611;494912;495205;495489;495769;496182;496366;496633;496833;497198;497543;497782;498068;498395;498698;498945;499245;499539;499866;500137;500385;500674;501024;501273;501573;501868;502149;502431;502721;503008;503314;503685;503959;504203;504484;504767;505053;505354;505648;505988;506287;506518;506801;507236;507441;507675;507976;508278;508628;508860;509142;509442;509798;510047;510348;510636;510918;511250;511488;511788;512099;512451;512693;512971;513297;513547;513846;514134;514498;514747;515034;515316;515653;515880;516237;516499;516787;517132;517410;517664;517912;518251;518590;518922;519152;519427;519715;520021;520273;520592;520910;521140;521506;521751;522031;522331;522631;522937;523242;523594;523877;524109;524401;524747;525021;525319;525614;525896;526185;526511;526802;527060;527405;527672;527960;528232;528524;528852;529118;529420;529718;530082;530307;530595;530946;531216;531490;531795;532134;532372;532660;532954;533286;533586;533841;534134;534429;534751;534987;535282;535581;535892;536187;536482;536768;537051;537333;537633;537939;538251;538689;538861;539110;539397;539736;539997;540296;540598;540892;541207;541450;541738;542044;542371;542644;542944;543250;543525;543814;544115;544421;544721;545015;545297;545572;545861;546181;546469;546649;546919;547320;547640;547870;548158;548488;548752;549092;549341;549618;549905;550187;550468;550769;551076;551368;551646;551926;552260;552554;552803;553098;553437;553703;553991;554268;554594;554844;555162;555444;555743;556089;556358;556601;556889;557183;557547;557801;558083;558354;558647;558930;559263;559524;559818;560119;560445;560688;560975;561265;561564;561852;562147;562428;562711;562926;563268;563550;563896;564151;564443;564721;565062;565334;565573;565861;566169;566389;566737;567020;567307;567493;567887;568147;568448;568748;569036;569319;569599;569881;570221;570544;570799;571076;571383;571658;571948;572241;572608;572876;573166;573440;573728;574016;574310;574557;574917;575265;575505;575810;576081;576363;576694;576988;577282;577607;577857;578151;578433;578726;579028;579327;579567;579910;580185;580473;580812;581076;581378;581661;581956;582271;582511;582789;583037;583371;583700;583977;584207;584515;584752;585021;585331;585586;585863;586165;586428;586642;586889;587153;587415;587725;587963;588233;588623;588767;589015;589296;589571;589871;590164;590430;590712;590982;591313;591527;591833;592118;592553;592703;592967;593183;593534;593808;594120;594448;594696;594973;595281;595512;595813;596118;596551;596712;596994;597372;597528;597792;598038;598314;598584;598837;599121;599334;599620;599865;600084;600336;600595;600865;601174;601393;601780;601941;602179;602449;602778;603018;603294;603610;603866;604144;604392;604682;605002;605269;605575;605892;606160;606403;606705;607044;607292;607603;607943;608195;608425;608690;609023;609258;609553;609868;610138;610377;610658;611084;611279;611523;611868;612104;612375;612703;612933;613222;613572;613964;614153;614374;614654;614981;615203;615495;615857;616117;616371;616674;616962;617249;617521;617775;618135;618414;618651;618920;619198;619629;619781;620068;620362;620656;620938;621219;621560;621784;622074;622418;622699;622988;623212;623522;623901;624036;624316;624657;624945;625205;625427;625737;626121;626261;626549;626831;627147;627431;627667;628005;628273;628570;628806;629047;629278;629610;629880;630146;630407;630678;631000;631359;631496;631771;632050;632269;632528;632808;633079;633382;633618;633884;634201;634392;634659;634945;635291;635665;635804;636074;636401;636678;636926;637271;637515;637819;638114;638397;638718;638968;639267;639591;639867;640154;640443;640783;641053;641295;641663;641940;642223;642460;642788;643060;643342;643559;643841;644173;644398;644657;644920;645197;645443;645700;646018;646274;646511;646780;647032;647308;647530;647788;648059;648328;648594;648884;649129;