336;629;907;1199;1449;1774;2009;2363;2668;2963;3246;3526;3820;4127;4426;4726;5027;5309;5597;5882;6169;6486;6780;7067;7355;7632;7912;8206;8501;8797;9107;9390;9672;9964;10241;10520;10854;11152;11442;11741;12029;12306;12605;12909;13223;13528;13810;14092;14384;14675;14969;15276;15567;15861;16147;16435;16720;17036;17284;17616;17907;18189;18445;18762;19045;19359;19654;19950;20232;20514;20796;21085;21386;21689;21990;22288;22570;22848;23129;23409;23718;24017;24306;24604;24875;25158;25445;25739;26045;26345;26634;26917;27200;27504;27796;28096;28390;28689;28980;29257;29545;29830;30145;30445;30745;31023;31314;31596;31885;32184;32486;32795;33091;33373;33653;33943;34237;34532;34832;35132;35425;35701;35978;36269;36563;36873;37172;37466;37742;38036;38319;38618;38911;39211;39505;39768;40066;40343;40641;40929;41229;41527;41810;42081;42378;42658;42955;43282;43564;43856;44142;44416;44704;44990;45284;45586;45892;46167;46444;46719;46996;47290;47561;47881;48164;48448;48725;49001;49283;49577;49882;50177;50460;50735;51016;51300;51583;51881;52175;52468;52746;53029;53303;53589;53880;54179;54467;54747;55025;55314;55552;55873;56161;56460;56755;57021;57297;57581;57862;58168;58451;58744;59039;59322;59597;59881;60174;60473;60754;61069;61352;61640;61927;62211;62509;62810;63113;63401;63673;63933;64226;64537;64836;65137;65425;65708;65990;66270;66565;66758;67088;67392;67687;67968;68261;68552;68846;69152;69465;69762;70039;70230;70604;70899;71195;71502;71804;72099;72387;72669;72962;73257;73566;73870;74162;74446;74728;74946;75298;75592;75854;76193;76480;76750;77033;77327;77624;77921;78214;78500;78786;79061;79349;79649;79918;80255;80556;80837;81110;81402;81694;81993;82296;82597;82890;83179;83461;83755;84061;84372;84672;84969;85266;85543;85833;86130;86440;86742;86964;87329;87611;87902;88194;88489;88794;89096;89390;89672;89948;90248;90546;90843;91148;91441;91730;92007;92306;92595;92906;93206;93498;93794;94064;94356;94606;94956;95258;95571;95858;96130;96414;96705;97007;97305;97605;97900;98187;98475;98751;99041;99339;0;99893;100184;100456;100746;101027;101318;101612;101904;102194;102478;102754;103034;103331;103632;103919;104222;104507;104794;105084;105372;105671;105984;106272;106559;106845;107121;107411;107712;108002;108299;108602;108888;109162;109445;109732;110040;110330;110634;110923;111210;111488;111769;112067;112359;112669;112969;113243;113521;113809;114102;114390;114680;114958;115238;115514;115783;116010;116330;116612;116900;117177;117459;117732;118004;118280;118569;118874;119177;119475;119762;120050;120340;120638;120951;121256;121565;121856;122140;122427;122708;123009;123322;123621;123901;124180;124467;124738;125015;125314;125606;125890;126166;126442;126702;126988;127276;127565;127853;0;128381;128659;128921;129191;129484;129761;130019;130278;130529;130786;131035;131287;131544;131808;132078;132243;132594;132853;133099;133323;133620;133892;134155;134431;134699;134952;135205;135474;135745;136023;136315;136592;136861;137143;137410;137690;137972;138265;138555;138848;139128;139402;139682;139970;140264;140555;140841;141116;141381;141649;141919;142168;142442;142708;142976;143235;143481;143727;143985;144262;144527;144796;145041;145344;145610;145842;146133;146404;146692;146968;147256;147526;147802;148031;148325;148596;148870;149164;149457;149734;149993;150264;150543;150814;151100;151373;151662;151931;152208;152477;152746;153024;153324;153604;153884;154152;154439;154704;154968;155250;155540;155826;156103;156360;156612;156870;157128;157391;157651;157920;158197;158450;158689;158941;159188;159439;159703;159967;160224;160466;160717;160969;161215;161461;161720;161991;162269;162514;162800;163058;163327;163591;163862;164139;164421;164691;164955;165207;165459;165715;165993;166235;166533;166803;167074;167310;167606;167878;168154;168448;168742;169042;169312;169593;169870;170159;170452;170681;171034;171335;171614;171883;172164;172441;172733;173034;173313;173589;173868;174138;174414;174694;174984;175283;175572;175842;176106;176379;176660;176936;177211;177487;177758;177999;178279;178542;178801;179047;179318;179622;179889;180151;180405;180672;180924;181195;181484;181772;182048;182317;0;182858;183146;183438;183740;184030;184324;184611;184897;185173;185470;185787;186100;186394;186679;186974;187257;187539;187831;188100;188438;188721;189007;189297;189585;189888;190197;190491;190784;191077;191361;191643;191826;192237;192538;192825;193114;193389;193663;193954;194242;194535;194829;195117;195394;195670;195940;196228;196520;196810;197092;197381;197649;197908;198184;198466;198749;199032;199316;199583;199859;200096;200397;200670;200970;201251;201509;201767;202031;202301;202572;202854;203142;203428;203700;203980;204263;204537;204812;205121;205414;205704;205979;206249;206531;206803;207090;207378;207685;207966;208241;208509;208782;209058;209348;209641;209935;210217;210495;210775;211047;211325;211614;211908;212191;212466;212738;213019;213290;213521;213854;214141;214424;214699;214969;215240;215522;215809;216098;216393;216668;216950;217238;217513;217784;218078;218383;218666;218935;219212;219492;219776;220057;220360;220652;220940;221185;221486;221768;222038;222338;222628;222914;223189;223472;223748;224008;224288;224576;224875;225155;225435;225708;225986;226256;226538;226736;227103;227390;227672;227948;228199;228477;228765;229056;229340;229621;229899;230175;230445;230722;231027;231315;231602;231878;232151;232424;232695;232971;233264;233544;233841;234112;234379;234644;234915;235210;235508;235791;236066;236361;236625;236889;237161;237459;237742;238031;238307;238575;238847;239117;239394;239674;239956;240221;240508;240772;241029;241281;241551;241816;242075;242336;242593;242842;243094;243352;243609;243863;244148;244425;244690;244948;245210;245476;245708;246024;246311;246608;246901;247168;247432;247702;247977;248260;248548;248836;249118;249399;249669;249953;250235;250521;250823;251122;251404;251669;251956;252240;252544;252832;253118;253421;253711;253973;254249;254543;254849;255132;255413;255703;256000;256259;256534;256817;257115;257398;257671;257932;258186;258399;258701;258965;259240;259500;259775;260034;260299;260548;260814;261090;261375;261653;261930;262212;262480;262746;263028;263310;263597;263892;264186;264462;264734;265019;265308;265614;265902;266196;266495;266784;267060;267342;267642;267937;268231;268506;268783;269063;269347;269634;269917;270216;270509;270786;271057;271333;271621;271914;272174;272492;272796;273084;273355;273643;273903;274224;274519;274814;275096;275360;275636;275910;276194;276481;276769;277062;277351;277615;277885;278176;278479;278779;279058;279342;279541;279882;280172;280468;280777;281072;281364;281643;281925;282194;282475;282758;283056;283350;283634;283873;284180;284451;284733;285032;285327;285613;285903;286173;286454;286725;287008;287310;287619;287908;288187;288465;288754;289036;289328;289624;289930;290224;290500;290781;291070;291364;291656;291948;292244;292531;292810;293083;293371;293675;293969;294237;294544;294822;295103;295386;295678;295978;296276;296574;296856;297132;297411;297700;297996;298296;298591;298841;299166;299448;299718;300013;300315;300624;300902;301171;301459;301747;302035;302305;302600;302905;303205;303465;303740;304031;304321;304598;304885;305173;305467;305666;306002;306296;306597;306902;307196;307478;307706;308030;308314;308582;308871;309175;309477;309743;310012;310293;310587;310869;311158;311451;311746;312022;312292;312567;312783;313150;313466;313770;314051;314334;314626;314912;315202;315501;315801;316095;316384;316659;316937;317192;317519;317744;318107;318399;318693;318971;319180;319546;319863;320172;320466;320750;321036;321184;321619;321928;322239;322535;322822;323105;323388;323689;324005;324300;324600;324894;325177;325466;325741;326045;326358;326664;326951;327236;327528;327772;328113;328383;328715;329018;329303;329587;329869;330176;330487;330778;331084;331375;331669;331953;332245;332544;332858;333163;333445;333736;334016;334307;334599;334904;335210;335505;335794;336067;336348;336640;336935;337239;337533;337821;338109;338398;338680;338986;339285;339593;339887;340173;340455;340741;341036;341337;341642;341938;342232;342510;342790;343078;343363;343667;343955;344242;344524;344805;345087;345375;345682;345977;346271;346559;346775;347116;347418;347717;348024;348328;348621;348899;349186;349469;349769;350070;350369;350656;350913;351229;351444;351786;352071;352352;352674;352950;353219;353503;353793;354087;354383;354684;354940;355265;355546;355822;356121;356420;356719;357006;357289;357571;357865;358146;358431;358747;359046;359326;359600;359868;360151;360428;360716;361013;361302;361589;361856;362126;362419;362696;362989;363278;363568;363838;364123;364412;364694;364984;365294;365600;365872;366153;366440;366741;367022;367323;367634;367923;368205;368493;368788;369069;369369;369676;369970;370241;370517;370810;371092;371362;371662;371968;372263;372520;372803;373097;373385;373667;373956;374232;374555;374818;375085;375371;375675;375959;376242;376543;376824;377027;377369;377661;377964;378267;378567;378849;379123;379402;379691;379981;380280;380573;380861;381135;381415;381689;381968;382267;382567;382855;383143;383416;383702;383985;384276;384570;384877;385170;385449;385737;386017;386306;386607;386900;387196;387494;387777;388048;388334;388629;388902;389246;389522;389821;390116;390293;390691;390999;391305;391599;391885;392168;392456;392744;392982;393344;393638;393917;394208;394482;394762;395056;395359;395662;395957;396236;396515;396808;397094;0;397502;397969;398260;398531;398817;399101;399394;399685;399981;400279;400564;400838;401128;401416;401717;402023;402294;402610;402900;403085;403469;403765;404059;404363;404661;404945;405215;405502;405793;406095;406384;406679;406967;407250;407499;407813;408108;408379;408701;408995;409278;409565;409842;410135;410435;410737;411035;411319;411594;411883;412167;412471;412774;413070;413359;413651;413933;414209;414496;414806;415110;415398;415667;415955;416236;416513;416804;417108;417403;417698;417974;418246;418535;418825;419118;419411;419707;419987;420265;420522;420831;421126;421430;421730;421958;422282;422567;422780;423127;423428;423728;424023;424304;424577;424862;425151;425451;425749;426044;426344;426621;426899;427191;427482;427784;428090;428384;428661;428950;429242;429520;429823;430125;430428;430715;431001;431277;431574;431865;432170;432466;432759;433041;433328;433611;0;434170;434473;434770;435058;435334;435621;435911;0;436470;436780;437079;437362;437644;437926;438229;438530;438825;439119;439415;439701;439982;440271;440582;440892;441197;441479;441774;442074;442367;442590;442962;443267;443568;443855;444138;444431;444667;445025;445327;445588;445909;446196;446468;446758;447062;447359;447654;447941;448231;448509;448800;449100;449395;449709;450001;450288;450567;450799;451155;451466;451766;452065;452355;452638;452925;453208;453468;453811;454112;454412;454618;454964;455258;455547;455847;456147;456447;456731;457005;457294;457593;457900;458128;458485;458777;459067;459345;459628;459921;460235;460534;460817;461110;461394;461686;461970;462270;462577;462880;463163;463423;463729;464014;464318;464622;464918;465215;465506;465785;466070;466372;466669;466971;467267;467549;467841;468125;468420;468673;469022;469331;469625;469908;470193;470487;470793;471095;471402;471689;471978;472266;472554;472848;473161;473460;473754;474037;474323;474610;474905;475195;475506;475813;476106;476382;476671;476959;477267;477560;477860;478159;478443;478724;479002;479292;479591;479890;480180;480457;480745;481017;481304;481600;481904;482200;482485;482765;483033;483314;483594;483890;484179;484472;484754;485034;485314;485606;485897;486214;486519;486807;487096;487386;487683;487974;488207;488591;488889;489185;489460;489750;490048;490350;490654;490932;491248;491535;491818;492102;492402;492707;493012;493306;493588;493881;494157;494449;494745;495040;495334;495616;495892;496163;496455;0;497031;497333;497626;497908;498199;498480;498768;499075;499374;499664;499948;500230;500511;500808;501107;501401;501710;501999;502277;502563;502845;503147;503455;503755;504039;504336;504619;504902;505189;505504;505788;506084;506366;506647;506936;507222;507512;507812;508121;508416;508706;508987;509280;509582;509888;510184;510453;510769;511058;511332;511617;511926;512235;512526;512817;513104;513387;513681;513974;514281;514586;514884;515163;515439;515719;516021;516295;516633;516930;517228;517512;517796;518084;518386;518687;518988;519268;519557;519844;520108;520421;520730;520942;521303;521588;521880;522169;522473;522778;523076;523378;523669;523959;524240;524537;524849;525160;525455;525680;526037;526318;526607;526901;527199;527510;527801;528084;528370;528654;528953;529259;529560;529858;530149;530431;530722;531015;531315;531630;531930;532224;532506;532793;533025;533374;533674;533969;534270;534555;534835;535121;535425;535729;536027;536324;536610;536892;537179;537466;537769;538075;538381;538670;538954;539244;539539;539833;540130;540429;540732;541017;541297;541584;541875;542188;542493;542757;543079;543372;543656;543942;544251;544546;544855;545059;545420;545702;545989;546269;546557;546724;547160;547444;547718;547993;548293;548589;548887;549147;549463;549747;550033;550310;550597;550908;551175;551497;551783;552062;552321;552638;552938;553239;553548;553838;554115;554401;554681;554980;555282;555577;555873;556168;556452;556730;557017;557318;557626;557923;558207;558486;558778;559065;559358;559659;559959;560230;560537;560809;561101;561393;561691;561980;562276;562530;562773;563104;563380;563686;563993;564285;564569;564851;565123;565414;565697;565999;566218;566579;566867;567147;0;567655;567982;568282;568585;568879;569169;569403;569724;570023;570322;570628;570917;571205;571500;571794;572081;572388;572694;573000;573295;573575;573857;574155;574398;574747;575058;575349;575641;575921;576213;576507;576823;577121;577414;577703;577983;578273;578568;578868;579163;579409;579755;580033;580320;580606;580907;581204;581508;581793;582082;582359;582632;582877;583164;583499;583779;584059;584328;584573;584869;585139;585412;585662;585979;586194;586489;586736;586994;587258;587534;587803;588074;588338;588613;588873;589146;589418;589700;589915;590278;590552;590834;591104;591337;591665;591963;592251;592533;592821;593037;593349;593643;593949;594248;594532;594819;595090;595371;595651;595953;596235;596541;596847;597099;597363;597629;597892;598144;598414;598678;598929;599183;599428;599668;599920;600177;600442;600699;600969;601240;601498;601762;602025;602290;602544;602815;603148;603416;603682;603946;604241;604520;604805;605104;605423;605699;605969;606261;606545;606842;607138;607434;607727;608003;608273;608537;608813;609092;609385;609673;609953;610230;610505;610785;611064;611362;611670;611909;612233;612504;612780;613068;613359;613628;613944;614220;614473;614779;615054;615330;615630;615925;616212;616488;616770;617032;617332;617617;617907;618210;618493;618769;619050;619327;619609;619914;620209;620503;620786;621064;621316;621625;621906;622206;622505;622789;623053;623330;623571;623877;624158;624444;624725;625010;625274;625543;625813;626102;626385;626673;626961;627241;627519;627793;628072;628350;628645;628939;629128;629460;629731;629989;630255;630442;630765;631069;631344;631578;631865;632120;632341;632649;632920;633163;633460;633732;633989;634252;634511;634788;635068;635351;635645;635933;636197;636485;636779;637072;637363;637662;637958;638245;638531;638809;639107;639406;639706;640003;640291;640579;640875;641142;641437;641736;642031;642307;642555;642848;643124;643368;643687;643962;644247;644513;644777;644995;645256;645519;645824;646057;646330;646621;646884;647131;647385;647635;647899;648170;648440;648699;648947;