383;671;958;1241;1524;1817;2053;2413;2714;3009;3291;3595;3870;4179;4502;4799;5069;5354;5645;5927;6223;6536;6854;7117;7400;7678;7988;8254;8547;8846;9179;9441;9719;10007;10319;10599;10911;11228;11489;11789;12077;12359;12654;12958;13275;13570;13857;14139;14433;14719;15020;15322;15616;15935;16199;16474;16791;17068;17366;17674;17981;18236;18522;18808;19112;19397;19702;20001;20280;20562;20846;21140;21433;21737;22038;22329;22635;22889;23172;23463;23765;24061;24353;24654;24923;25206;25522;25818;26097;26395;26707;26960;27246;27544;27850;28144;28444;28739;29023;29302;29589;29887;30218;30495;30788;31099;31357;31649;31937;32237;32539;32849;33136;33412;33700;33989;34283;34584;34878;35177;35463;35747;36024;36319;36614;36924;37223;37536;37791;38079;38370;38660;38988;39263;39559;39834;40105;40394;40689;41005;41280;41575;41864;42153;42428;42712;43035;43315;43615;43905;44208;44468;44755;45039;45356;45636;45932;46234;46491;46771;47051;47343;47642;47929;48238;48494;48777;49048;49363;49627;49932;50223;50528;50779;51064;51348;51639;51933;52227;52531;52792;53073;53349;53644;53931;54228;54516;54798;55072;55353;55635;55917;56217;56511;56794;57089;57346;57623;57915;58203;58498;58796;59113;59363;59640;59928;60229;60528;60826;61117;61400;61692;61972;62262;62564;62860;63168;63475;63719;64006;64301;64590;64884;65182;65472;65785;66039;66320;66617;66805;67139;67443;67741;68044;68310;68605;68895;69200;69516;69804;70110;70368;70651;70949;71253;71552;71854;72146;72451;72718;73009;73338;73621;73921;74204;74520;74775;74994;75341;75641;75943;76245;76528;76797;77082;77376;77672;77989;78259;78550;78863;79136;79394;79701;80000;80325;80594;80880;81165;81453;81743;82042;82345;82648;82935;83218;83500;83807;84112;84416;84719;85019;85315;85614;85883;86180;86487;86817;87094;87377;87688;87954;88240;88544;88842;89145;89429;89711;89996;90294;90599;90894;91201;91490;91797;92059;92346;92646;92981;93259;93546;93832;94145;94405;94705;95010;95334;95614;95905;96179;96459;96755;97059;97358;97653;97945;98236;98544;98798;99098;99390;99616;99938;100226;100505;100816;101079;101371;101666;101955;102243;102524;102801;103082;103384;103679;103972;104270;104555;104839;105129;105420;105716;106025;106323;106609;106891;107168;107465;107761;108054;108357;108652;108933;109209;109494;109787;110086;110383;110682;110974;111278;111533;111819;112122;112415;112719;113009;113292;113599;113858;114152;114437;114725;115014;115288;115555;115824;116092;116382;116666;116952;117222;117505;117781;118055;118332;118622;118922;119227;119521;119802;120090;120414;120690;121005;121309;121641;121898;122185;122474;122761;123063;123373;123676;123950;124231;124520;124788;125068;125365;125660;125937;126240;126489;126758;127037;127348;127617;127907;128123;128434;128766;129030;129243;129531;129806;130067;130329;130576;130827;131082;131340;131596;131863;132131;132394;132640;132896;133144;133398;133695;133942;134208;134477;134773;134998;135251;135519;135790;136075;136362;136644;136907;137186;137460;137742;138020;138312;138613;138900;139176;139452;139728;140021;140317;140636;140893;141164;141433;141694;141972;142218;142495;142781;143022;143277;143547;143779;144037;144318;144571;144846;145124;145394;145658;145915;146180;146456;146745;147025;147304;147579;147843;148108;148377;148652;148929;149220;149505;149782;150038;150315;150605;150861;151154;151443;151714;151986;152250;152523;152794;153104;153401;153657;153934;154201;154480;154756;155021;155304;155601;155880;156143;156407;156659;156917;157178;157443;157703;157998;158271;158501;158741;159010;159237;159491;159751;160036;160272;160518;160769;161040;161265;161512;161775;162073;162323;162581;162846;163133;163380;163638;163934;164219;164473;164742;165027;165258;165510;165769;166045;166309;166582;166878;167145;167382;167654;167924;168229;168497;168795;169112;169361;169640;169922;170210;170504;170728;171088;171387;171664;171933;172212;172498;172811;173079;173365;173640;173919;174189;174466;174749;175036;175331;175619;175888;176158;176440;176716;176988;177263;177535;177809;178076;178324;178588;178853;179131;179400;179673;179938;180194;180456;180713;180972;181245;181537;181822;182095;182368;182640;182911;183194;183488;183788;184081;184376;184683;184942;185225;185523;185864;186151;186439;186730;187038;187305;187590;187909;188193;188491;188773;189055;189339;189638;189942;190236;190540;190829;191125;191408;191706;191989;192295;192584;192873;193157;193458;193738;194006;194294;194611;194883;195168;195439;195713;195987;196281;196574;196859;197145;197426;197696;197986;198238;198513;198806;199084;199364;199631;199906;200176;200444;200727;201029;201304;201556;201819;202077;202352;202623;202905;203192;203481;203753;204034;204332;204584;204867;205167;205468;205750;206031;206297;206575;206853;207142;207459;207733;208018;208289;208559;208832;209108;209405;209720;209982;210269;210545;210817;211096;211373;211667;211960;212237;212515;212786;213066;213335;213618;213906;214193;214476;214750;215017;215292;215574;215862;216151;216444;216717;217001;217304;217559;217839;218135;218427;218713;218985;219259;219541;219826;220110;220404;220706;220989;221263;221563;221815;222090;222384;222679;222960;223242;223518;223795;224058;224337;224634;224927;225203;225482;225757;226032;226308;226589;226872;227159;227443;227713;227988;228246;228533;228817;229107;229389;229668;229945;230227;230497;230772;231096;231367;231650;231925;232227;232471;232748;233028;233313;233602;233886;234163;234428;234697;234968;235262;235558;235839;236120;236405;236677;236935;237218;237531;237791;238083;238357;238624;238897;239169;239446;239729;240007;240276;240553;240819;241076;241330;241598;241867;242125;242410;242670;242888;243142;243423;243659;243921;244204;244476;244740;244992;245258;245524;245804;246074;246361;246657;246943;247213;247477;247750;248026;248312;248595;248886;249174;249442;249718;250028;250282;250575;250867;251169;251449;251719;252002;252295;252594;252876;253167;253471;253750;254020;254294;254595;254901;255179;255462;255758;256036;256304;256580;256869;257167;257454;257722;257979;258237;258490;258750;259021;259289;259552;259825;260087;260347;260597;260865;261141;261429;261702;261981;262252;262527;262801;263076;263360;263650;263943;264226;264507;264785;265070;265367;265661;265958;266252;266543;266824;267107;267388;267712;268017;268271;268553;268836;269110;269398;269681;269974;270269;270559;270834;271102;271383;271692;271966;272257;272541;272847;273131;273406;273683;273976;274276;274572;274862;275139;275412;275680;275957;276244;276525;276813;277112;277397;277658;277938;278220;278527;278827;279107;279391;279589;279930;280217;280520;280824;281124;281412;281690;281963;282244;282522;282810;283105;283398;283680;283952;284225;284501;284787;285081;285372;285661;285945;286218;286495;286777;287061;287364;287665;287953;288237;288515;288805;289085;289382;289676;289979;290266;290547;290822;291120;291417;291711;291999;292290;292574;292856;293133;293420;293721;294020;294311;294590;294867;295154;295438;295726;296025;296331;296620;296897;297177;297459;297747;298041;298343;298635;298936;299214;299492;299765;300061;300369;300676;300948;301222;301503;301793;302074;302356;302653;302956;303249;303515;303785;304074;304371;304648;304931;305221;305532;305717;306044;306345;306654;306953;307242;307525;307752;308071;308358;308634;308923;309234;309525;309788;310060;310344;310638;310926;311209;311502;311819;312073;312336;312613;312836;313203;313517;313821;314102;314382;314673;314960;315282;315550;315852;316147;316424;316702;316990;317274;317569;317794;318157;318446;318741;319023;319253;319595;319913;320214;320504;320794;321086;321380;321674;321976;322287;322581;322865;323147;323433;323739;324053;324354;324649;324938;325227;325504;325792;326097;326411;326706;326999;327284;327574;327868;328185;328461;328762;329070;329351;329627;329921;330228;330533;330828;331132;331422;331714;331999;332290;332597;332905;333208;333488;333780;334067;334356;334656;334956;335257;335551;335857;336111;336396;336689;336990;337291;337579;337872;338154;338443;338730;339033;339363;339645;339937;340220;340502;340788;341083;341388;341693;341984;342279;342555;342830;343126;343419;343714;344003;344294;344566;344852;345140;345428;345731;346033;346317;346605;346812;347156;347462;347767;348075;348377;348667;348943;349230;349515;349813;350122;350421;350703;350988;351274;351489;351838;352126;352425;352719;352995;353266;353558;353841;354137;354436;354726;355024;355310;355588;355867;356174;356472;356767;357055;357337;357624;357909;358195;358494;358799;359095;359376;359645;359915;360191;360479;360776;361061;361353;361638;361902;362171;362459;362741;363035;363327;363614;363886;364166;364455;364739;365030;365346;365651;365923;366200;366491;366788;367072;367372;367683;367968;368255;368545;368834;369119;369421;369724;370022;370287;370568;370851;371140;371414;371712;372016;372308;372566;372844;373132;373436;373721;374008;374316;374603;374863;375133;375421;375724;376006;376299;376587;376870;377089;377416;377709;378013;378317;378616;378901;379170;379448;379741;380032;380321;380619;380907;381181;381461;381734;382025;382343;382617;382903;383194;383466;383752;384035;384326;384624;384924;385217;385499;385777;386059;386357;386658;386951;387251;387541;387819;388119;388386;388680;388989;389286;389572;389868;390157;390444;390739;391048;391354;391652;391932;392212;392502;392816;393085;393386;393683;393990;394254;394531;394809;395134;395410;395705;396001;396276;396567;396853;397142;397345;397713;398016;398305;398578;398862;399148;399446;399739;400032;400331;400611;400885;401172;401462;401768;402069;402369;402655;402942;403227;403518;403814;404116;404412;404706;404988;405265;405555;405845;406143;406438;406733;407013;407297;407568;407858;408167;408461;408755;409039;409322;409607;409889;410185;410486;410790;411080;411367;411646;411929;412216;412522;412826;413125;413436;413700;413977;414258;414551;414856;415152;415440;415711;416002;416286;416564;416860;417160;417454;417738;418014;418292;418586;418876;419165;419462;419753;420056;420310;420592;420882;421210;421482;421775;422003;422334;422617;422826;423172;423474;423776;424072;424348;424624;424901;425198;425501;425797;426090;426388;426669;426947;427234;427531;427836;428138;428421;428706;429000;429286;429567;429875;430174;430479;430764;431044;431324;431624;431919;432223;432517;432807;433092;433372;433656;433855;434220;434521;434819;435112;435380;435667;435959;436159;436524;436828;437126;437408;437716;437976;438276;438585;438873;439166;439461;439748;440031;440323;440630;440942;441239;441527;441823;442119;442414;442632;443001;443313;443614;443896;444183;444481;444713;445071;445371;445666;445959;446235;446519;446808;447114;447420;447704;447988;448272;448557;448844;449147;449450;449757;450048;450334;450615;450905;451202;451510;451817;452109;452399;452686;452967;453264;453557;453860;454163;454452;454665;455005;455302;455599;455896;456205;456496;456780;457057;457345;457644;457946;458178;458532;458827;459112;459391;459679;459975;460283;460586;460868;461157;461444;461730;462025;462324;462630;462927;463207;463489;463774;464062;464371;464683;464968;465268;465549;465831;466114;466413;466718;467021;467319;467597;467890;468173;468467;468771;469075;469372;469669;469950;470241;470540;470845;471147;471452;471736;472027;472312;472597;472897;473210;473508;473801;474082;474371;474664;474953;475247;475556;475859;476145;476425;476714;477011;477316;477614;477906;478206;478489;478765;479052;479340;479642;479940;480227;480502;480791;481065;481350;481651;481949;482248;482533;482812;483083;483360;483645;483944;484230;484518;484795;485081;485367;485653;485953;486262;486569;486853;487140;487432;487727;488030;488329;488644;488939;489223;489505;489798;490100;490403;490705;491003;491295;491578;491858;492153;492454;492759;493055;493348;493632;493922;494236;494499;494799;495094;495408;495657;495933;496209;496510;496721;497082;497385;497673;497955;498238;498526;498821;499124;499426;499710;499995;500277;500557;500857;501154;501457;501755;502047;502324;502610;502897;503199;503505;503802;504093;504383;504664;504944;505236;505537;505839;506133;506406;506688;506977;507265;507561;507888;508169;508463;508752;509048;509328;509633;509932;510232;510528;510816;511104;511407;511668;511979;512286;512577;512860;513146;513432;513729;514045;514333;514637;514927;515232;515485;515771;516074;516409;516706;516978;517274;517562;517870;518138;518435;518743;519067;519343;519602;519890;520160;520495;520778;520990;521354;521663;521924;522217;522520;522831;523126;523424;523716;524012;524289;524586;524900;525207;525503;525795;526077;526367;526683;526950;527252;527557;527847;528127;528410;528698;529000;529330;529609;529905;530199;530506;530772;531066;531372;531677;531975;532265;532552;532839;533130;533424;533728;534025;534316;534604;534886;535170;535468;535777;536075;536373;536653;536938;537220;537514;537820;538127;538430;538722;539002;539286;539589;539883;540184;540481;540785;541060;541342;541625;541925;542235;542542;542834;543126;543415;543701;543992;544320;544600;544904;545190;545466;545750;546031;546315;546610;546828;547211;547491;547766;548068;548343;548641;548935;549255;549511;549792;550078;550356;550650;550960;551261;551541;551823;552108;552394;552691;553009;553291;553597;553884;554162;554447;554732;555035;555333;555622;555923;556213;556494;556793;557070;557370;557677;557975;558275;558537;558821;559111;559431;559704;560006;560305;560585;560864;561150;561444;561741;562054;562317;562600;562820;563152;563433;563740;564039;564331;564614;564891;565172;565461;565750;566049;566268;566623;566907;567193;567392;567730;568036;568335;568633;568930;569212;569494;569774;570067;570374;570676;570969;571254;571557;571840;572131;572437;572739;573048;573336;573619;573902;574201;574439;574794;575103;575395;575686;575968;576256;576559;576871;577175;577464;577749;578034;578320;578610;578909;579214;579457;579798;580084;580365;580659;580962;581281;581553;581844;582127;582418;582683;582946;583247;583547;583829;584105;584375;584646;584915;585188;585467;585745;586024;586283;586535;586780;587039;587308;587580;587851;588127;588385;588660;588918;589186;589462;589759;590053;590325;590599;590872;591155;591432;591715;592010;592297;592583;592861;593079;593400;593693;594004;594295;594571;594866;595135;595410;595699;596001;596286;596592;596887;597147;597414;597679;597938;598195;598467;598722;598981;599233;599480;599715;599965;600224;600495;600751;601024;601286;601549;601812;602071;602342;602623;602905;603190;603466;603730;603997;604286;604573;604861;605157;605468;605745;606016;606301;606598;606888;607188;607485;607776;608054;608317;608588;608867;609150;609460;609728;609999;610297;610553;610832;611122;611408;611703;611995;612272;612548;612828;613117;613410;613702;613993;614268;614547;614825;615098;615379;615686;615976;616258;616536;616810;617095;617375;617668;617958;618256;618539;618812;619090;619371;619667;619961;620258;620549;620841;621113;621387;621669;621952;622256;622550;622832;623116;623375;623647;623925;624203;624493;624774;625058;625321;625590;625863;626147;626436;626724;627011;627290;627563;627835;628111;628407;628700;628992;629180;629505;629773;630037;630301;630572;630846;631124;631386;631647;631911;632169;632426;632697;632967;633243;633513;633778;634040;634291;634560;634835;635115;635403;635697;635979;636247;636531;636820;637120;637407;637712;638005;638292;638569;638855;639149;639454;639753;640048;640338;640624;640914;641187;641489;641789;642077;642373;642622;642899;643175;643448;643733;644018;644319;644558;644820;645071;645329;645595;645876;646146;646402;646669;646927;647178;647425;647682;647950;648216;648491;648744;648989;