463;742;1042;1305;1598;1902;2124;2491;2810;3099;3383;3636;3944;4243;4578;4851;5139;5459;5716;6003;6312;6616;6902;7182;7489;7757;8035;8320;8655;8924;9216;9531;9815;10084;10375;10663;11002;11269;11553;11879;12166;12424;12728;13041;13346;13639;13955;14204;14503;14790;15080;15413;15689;15968;16274;16566;16844;17136;17433;17773;18031;18303;18613;18868;19166;19445;19794;20082;20353;20651;20919;21219;21513;21835;22125;22404;22687;22980;23262;23553;23841;24160;24434;24715;25014;25286;25580;25870;26175;26475;26761;27036;27322;27615;27919;28216;28537;28811;29101;29358;29663;29964;30268;30589;30863;31145;31427;31723;32015;32309;32645;32944;33203;33477;33788;34066;34361;34649;34963;35255;35537;35833;36117;36418;36690;37016;37299;37580;37866;38175;38422;38743;39030;39354;39611;39908;40168;40492;40763;41048;41374;41648;41949;42199;42503;42786;43085;43395;43691;43976;44256;44558;44821;45114;45409;45703;46014;46279;46581;46820;47127;47418;47696;48019;48283;48550;48865;49128;49404;49703;50031;50301;50576;50874;51156;51423;51701;52002;52319;52584;52856;53113;53430;53722;54030;54332;54612;54864;55143;55441;55721;55994;56286;56603;56865;57159;57432;57713;57979;58273;58590;58887;59168;59457;59730;60019;60298;60601;60906;61191;61482;61756;62058;62327;62633;62931;63248;63515;63790;64109;64383;64658;64981;65249;65549;65818;66107;66407;66632;66879;67212;67543;67807;68098;68410;68685;68979;69284;69604;69862;70152;70426;70742;71049;71329;71643;71916;72217;72500;72787;73102;73397;73693;73994;74309;74564;74834;75060;75419;75714;76022;76336;76617;76868;77155;77474;77754;78035;78332;78640;78902;79169;79493;79767;80088;80371;80684;80968;81230;81520;81840;82113;82424;82718;83008;83315;83570;83878;84209;84497;84793;85089;85385;85659;85959;86280;86572;86868;87175;87464;87730;88048;88340;88627;88918;89235;89512;89785;90091;90391;90665;90960;91296;91558;91851;92122;92436;92724;93027;93309;93611;93910;94180;94470;94769;95083;95388;95690;95970;96247;96538;96854;97159;97435;97721;98043;98305;98590;98863;99167;99450;99668;100008;100312;100584;100861;101175;101463;101738;102033;102337;102600;102867;103164;103452;103753;104040;104355;104649;104910;105194;105509;105794;106094;106396;106699;106966;107240;107557;107842;108130;108429;108743;109009;109282;109585;109856;110160;110457;110772;111038;111326;111604;111891;112184;112491;112791;113102;113364;113632;113927;114245;114532;114820;115073;115376;115623;115919;116180;116477;116727;117016;117299;117609;117853;118149;118404;118717;119004;119334;119590;119886;120167;120454;120782;121083;121391;121710;121989;122260;122544;122839;123115;123442;123734;124009;124308;124582;124878;125140;125443;125737;126031;126286;126563;126839;127122;127388;127707;127963;128160;128506;128769;129032;129310;129598;129870;130147;130402;130659;130887;131152;131374;131667;131924;132175;132482;132704;132957;133225;133476;133739;134034;134295;134537;134812;135084;135337;135586;135863;136168;136454;136710;136997;137270;137513;137769;138077;138406;138675;138953;139274;139535;139836;140111;140390;140683;140987;141238;141496;141777;142007;142307;142586;142829;143116;143343;143585;143845;144101;144359;144635;144911;145217;145464;145724;145972;146266;146538;146801;147126;147363;147643;147924;148186;148443;148747;149025;149295;149571;149837;150127;150379;150659;150950;151196;151489;151778;152047;152320;152584;152889;153139;153450;153709;154017;154279;154550;154842;155115;155380;155675;155968;156213;156470;156744;156981;157241;157535;157762;158034;158310;158586;158798;159042;159324;159556;159854;160086;160338;160604;160851;161071;161319;161602;161863;162121;162412;162675;162893;163204;163443;163701;163981;164268;164540;164823;165064;165350;165589;165836;166102;166407;166671;166942;167166;167464;167741;167992;168296;168600;168844;169139;169445;169699;169988;170270;170571;170801;171156;171467;171752;172004;172294;172583;172864;173143;173414;173710;173988;174246;174532;174807;175105;175408;175701;175954;176224;176505;176816;177058;177326;177594;177900;178138;178399;178657;178922;179199;179467;179729;180034;180264;180518;180799;181063;181340;181606;181897;182180;182454;182700;182990;183281;183577;183851;184177;184459;184732;185010;185292;185588;185909;186222;186531;186800;187078;187349;187664;187955;188262;188563;188849;189131;189406;189710;189997;190308;190616;190896;191184;191503;191754;192070;192353;192661;192944;193245;193501;193782;194099;194367;194664;194947;195258;195493;195782;196044;196375;196665;196925;197204;197512;197773;198025;198326;198610;198888;199152;199450;199720;199979;200242;200505;200789;201085;201357;201644;201904;202137;202418;202714;202964;203253;203567;203844;204086;204375;204664;204954;205261;205541;205836;206081;206359;206651;206940;207231;207493;207808;208083;208353;208633;208908;209202;209487;209763;210034;210359;210628;210887;211186;211464;211744;212066;212333;212599;212864;213131;213428;213707;213998;214263;214567;214835;215088;215350;215659;215950;216218;216515;216794;217065;217353;217640;217928;218211;218510;218786;219072;219323;219610;219886;220182;220475;220801;221072;221314;221602;221878;222187;222448;222758;223032;223306;223581;223853;224143;224427;224700;224998;225255;225571;225823;226098;226396;226665;226942;227245;227528;227813;228045;228338;228620;228891;229176;229444;229727;230020;230310;230582;230864;231138;231438;231740;231991;232267;232567;232847;233111;233391;233677;233962;234233;234485;234783;235045;235338;235634;235924;236180;236465;236758;237024;237282;237575;237870;238139;238409;238697;238988;239253;239517;239803;240061;240364;240629;240883;241129;241396;241667;241959;242215;242441;242698;242980;243236;243465;243708;244012;244264;244543;244795;245038;245347;245594;245893;246175;246423;246723;247002;247293;247535;247809;248091;248405;248691;248952;249226;249540;249789;250059;250363;250667;250943;251233;251536;251773;252073;252367;252655;252946;253237;253542;253813;254072;254347;254676;254980;255292;255517;255818;256116;256401;256641;256940;257241;257541;257798;258045;258284;258572;258841;259088;259349;259644;259884;260160;260428;260678;260919;261212;261495;261792;262048;262343;262610;262824;263140;263433;263742;264006;264297;264576;264867;265159;265429;265728;266013;266348;266606;266895;267181;267481;267757;268060;268363;268623;268907;269205;269442;269753;270044;270322;270637;270896;271173;271442;271741;272064;272305;272612;272923;273202;273467;273761;274057;274335;274622;274919;275237;275506;275772;276031;276311;276613;276906;277173;277465;277757;278024;278318;278595;278887;279202;279435;279663;279983;280308;280582;280894;281181;281459;281740;282027;282310;282613;282902;283203;283460;283735;284047;284280;284566;284860;285154;285432;285732;286019;286274;286590;286841;287136;287435;287728;288007;288309;288584;288891;289183;289459;289739;290030;290314;290621;290898;291172;291476;291795;292076;292382;292636;292948;293197;293464;293790;294118;294382;294664;294958;295243;295502;295798;296095;296422;296690;296969;297229;297524;297824;298122;298435;298729;299017;299284;299555;299857;300159;300451;300749;301037;301264;301571;301857;302166;302453;302745;303036;303317;303597;303870;304152;304452;304740;305029;305291;305573;305785;306134;306408;306724;307025;307343;307572;307809;308144;308417;308726;309015;309293;309585;309873;310145;310408;310714;311016;311301;311567;311860;312157;312433;312675;312905;313270;313614;313916;314167;314474;314772;315045;315318;315617;315913;316234;316495;316781;317046;317368;317642;317864;318243;318552;318830;319081;319305;319699;320005;320290;320568;320834;321087;321453;321748;322052;322354;322639;322954;323205;323506;323844;324131;324422;324714;325034;325318;325577;325873;326167;326479;326782;327063;327375;327637;327941;328233;328544;328825;329130;329415;329710;330015;330319;330604;330897;331218;331528;331772;332077;332364;332634;333002;333285;333549;333845;334143;334428;334727;335048;335363;335646;335905;336172;336486;336766;337062;337363;337640;337945;338225;338499;338801;339106;339417;339708;339990;340274;340607;340860;341185;341487;341758;342065;342332;342619;342931;343199;343496;343806;344096;344402;344635;344938;345194;345498;345813;346099;346409;346663;346880;347227;347543;347828;348177;348447;348723;349017;349315;349594;349893;350179;350475;350772;351057;351349;351583;351896;352200;352492;352781;353060;353335;353614;353909;354240;354503;354801;355071;355367;355652;355941;356269;356566;356831;357122;357418;357714;357976;358275;358570;358867;359185;359445;359697;359967;360260;360546;360841;361125;361428;361718;361964;362243;362531;362837;363094;363400;363683;363940;364260;364522;364836;365105;365419;365720;366007;366258;366556;366854;367167;367445;367751;368005;368302;368609;368905;369189;369499;369802;370094;370349;370654;370921;371208;371511;371768;372098;372372;372658;372893;373207;373503;373815;374071;374390;374670;374950;375224;375492;375815;376061;376386;376644;376933;377180;377470;377788;378086;378382;378675;378963;379219;379548;379817;380104;380387;380691;380972;381246;381552;381818;382093;382395;382627;382995;383262;383532;383818;384134;384387;384708;384992;385275;385588;385839;386153;386425;386763;387027;387326;387556;387917;388161;388442;388750;389084;389366;389638;389960;390230;390504;390804;391141;391448;391722;391990;392307;392569;392869;393160;393464;393757;394030;394314;394617;394887;395182;395471;395753;396088;396350;396618;396905;397195;397417;397787;398087;398365;398629;398954;399242;399513;399832;400124;400418;400681;400962;401227;401532;401846;402134;402458;402746;403006;403288;403574;403908;404213;404482;404798;405077;405332;405618;405946;406240;406497;406782;407076;407359;407635;407930;408256;408532;408812;409130;409413;409687;409958;410280;410582;410864;411155;411452;411733;411992;412285;412623;412904;413193;413485;413784;414066;414334;414619;414924;415246;415499;415775;416090;416336;416646;416938;417254;417550;417801;418081;418347;418641;418948;419232;419562;419846;420100;420384;420646;420978;421255;421547;421839;422094;422394;422676;422899;423233;423550;423850;424159;424444;424698;424974;425294;425598;425872;426159;426476;426759;427018;427308;427636;427900;428210;428498;428763;429090;429352;429641;429946;430269;430573;430830;431105;431402;431725;431986;432297;432608;432898;433164;433436;433729;433910;434291;434593;434908;435191;435450;435739;436014;436223;436592;436894;437212;437498;437752;438049;438375;438674;438961;439248;439549;439832;440096;440391;440697;441012;441303;441597;441917;442179;442483;442700;443099;443379;443675;443969;444290;444553;444810;445142;445442;445736;446043;446299;446583;446902;447181;447499;447770;448048;448371;448626;448917;449206;449532;449834;450130;450430;450677;450985;451275;451608;451904;452181;452476;452783;453053;453325;453637;453933;454236;454506;454730;455083;455391;455692;455981;456266;456565;456868;457122;457405;457703;458014;458251;458607;458892;459182;459464;459747;460045;460351;460652;460942;461244;461531;461804;462108;462419;462697;463005;463271;463554;463831;464120;464445;464725;465062;465327;465620;465894;466168;466509;466798;467096;467406;467654;467972;468249;468499;468849;469136;469459;469781;470008;470313;470613;470919;471224;471518;471808;472093;472380;472682;472966;473304;473575;473865;474157;474436;474754;475031;475322;475624;475953;476222;476493;476781;477072;477398;477690;477981;478263;478567;478837;479122;479407;479740;480057;480293;480596;480849;481145;481416;481751;482047;482325;482596;482854;483136;483438;483719;484041;484291;484581;484857;485147;485459;485720;486029;486334;486635;486924;487207;487500;487798;488109;488406;488708;489014;489289;489578;489896;490164;490476;490777;491075;491390;491642;491915;492217;492525;492830;493128;493422;493707;493995;494282;494562;494878;495173;495453;495728;496018;496307;496579;496796;497144;497484;497741;498027;498330;498616;498891;499202;499505;499807;500083;500355;500638;500965;501221;501521;501825;502106;502376;502684;502972;503266;503604;503895;504159;504449;504724;505012;505312;505612;505942;506227;506477;506754;507065;507359;507637;507935;508234;508567;508825;509086;509392;509733;510010;510313;510602;510880;511191;511452;511745;512045;512388;512641;512927;513233;513494;513808;514098;514433;514711;514997;515273;515571;515833;516176;516454;516753;517082;517366;517625;517889;518199;518536;518840;519110;519385;519660;519981;520230;520541;520846;521089;521443;521706;521999;522296;522606;522903;523193;523513;523809;524083;524360;524681;524955;525285;525572;525861;526152;526457;526753;527026;527346;527641;527925;528193;528470;528793;529076;529383;529674;530000;530264;530545;530864;531163;531453;531760;532073;532327;532625;532909;533225;533519;533795;534093;534389;534690;534951;535238;535547;535843;536143;536433;536728;536999;537280;537585;537897;538194;538518;538814;539080;539365;539671;539954;540267;540563;540839;541151;541410;541705;542001;542327;542609;542907;543196;543494;543760;544073;544380;544677;544968;545259;545538;545819;546122;546410;546610;546866;547281;547589;547838;548116;548437;548719;549032;549302;549584;549848;550149;550426;550715;551019;551322;551609;551904;552206;552488;552770;553055;553393;553668;553957;554223;554543;554797;555108;555406;555693;556025;556298;556555;556846;557131;557465;557742;558051;558321;558597;558887;559200;559491;559776;560083;560390;560655;560919;561229;561512;561794;562113;562374;562661;562885;563221;563510;563845;564116;564397;564688;564980;565265;565538;565823;566107;566326;566704;566977;567261;567451;567820;568107;568405;568693;568990;569281;569561;569847;570170;570462;570762;571034;571342;571615;571920;572204;572545;572838;573123;573406;573678;573964;574277;574527;574865;575201;575469;575753;576035;576324;576612;576944;577244;577554;577813;578097;578389;578684;578995;579291;579530;579868;580149;580432;580746;581025;581332;581619;581902;582216;582469;582746;582988;583313;583651;583936;584171;584470;584705;584988;585287;585544;585812;586116;586387;586587;586847;587110;587382;587666;587921;588191;588474;588717;588977;589257;589536;589827;590123;590382;590667;590947;591246;591490;591791;592087;592393;592652;592935;593149;593484;593759;594071;594386;594639;594947;595229;595486;595769;596076;596379;596662;596952;597237;597487;597749;597979;598265;598534;598782;599068;599290;599565;599800;600037;600304;600560;600817;601119;601359;601635;601888;602135;602406;602729;602976;603261;603554;603818;604081;604349;604646;604947;605225;605531;605824;606100;606347;606671;606983;607257;607553;607883;608133;608374;608645;608962;609226;609500;609810;610076;610340;610604;610919;611213;611479;611805;612064;612338;612635;612883;613196;613506;613794;614097;614338;614611;614918;615175;615451;615775;616068;616330;616626;616904;617185;617468;617721;618053;618347;618621;618891;619166;619469;619726;620025;620306;620630;620913;621165;621478;621743;622019;622351;622638;622930;623172;623462;623738;623987;624275;624575;624863;625141;625395;625681;625946;626213;626500;626777;627091;627389;627629;627923;628191;628504;628765;628999;629242;629566;629826;630091;630370;630635;630934;631215;631459;631730;631990;632220;632500;632773;633032;633332;633576;633851;634119;634369;634619;634900;635211;635500;635761;636039;636342;636616;636891;637205;637460;637787;638073;638342;638659;638921;639213;639542;639820;640121;640399;640719;641008;641260;641582;641881;642169;642406;642706;642978;643260;643524;643791;644110;644372;644617;644871;645161;645393;645665;645968;646228;646485;646738;646978;647257;647490;647753;648005;648282;648551;648820;649063;