294;588;893;1157;1420;1732;1975;2321;2626;2921;3231;3484;3778;4113;4384;4686;4985;5267;5572;5841;6127;6471;6738;7025;7338;7590;7871;8164;8485;8757;9065;9349;9658;9923;10228;10486;10812;11110;11400;11729;11987;12264;12564;12867;13207;13486;13777;14050;14342;14634;14927;15249;15525;15819;16106;16393;16678;17020;17242;17602;17865;18148;18403;18739;19003;19337;19612;19937;20218;20501;20784;21043;21344;21647;21948;22246;22529;22827;23106;23367;23695;23989;24294;24562;24833;25116;25403;25697;26003;26303;26592;26875;27158;27462;27754;28054;28348;28669;28938;29215;29531;29788;30113;30430;30723;30993;31273;31554;31843;32142;32444;32754;33049;33331;33611;33901;34195;34490;34819;35114;35383;35660;35937;36228;36523;36859;37158;37424;37729;38020;38277;38576;38870;39169;39463;39726;40024;40328;40599;40887;41216;41485;41768;42063;42337;42616;42913;43267;43552;43815;44114;44374;44689;44949;45243;45545;45850;46125;46432;46677;46983;47278;47520;47840;48123;48435;48711;48959;49269;49550;49840;50161;50418;50722;50974;51283;51541;51867;52133;52426;52729;52988;53286;53548;53867;54137;54426;54705;55012;55287;55510;55831;56119;56447;56713;56979;57255;57539;57821;58127;58409;58703;58997;59301;59555;59868;60160;60461;60712;61052;61310;61627;61914;62169;62495;62796;63071;63359;63661;63892;64185;64496;64794;65095;65383;65696;65948;66228;66523;66716;67076;67350;67645;67926;68219;68540;68804;69110;69451;69721;69997;70188;70563;70884;71153;71460;71762;72086;72345;72656;72945;73216;73524;73856;74144;74405;74716;74904;75256;75575;75813;76151;76438;76737;76991;77309;77583;77880;78172;78458;78745;79020;79308;79607;79876;80236;80514;80796;81069;81388;81652;81952;82254;82585;82872;83137;83419;83713;84020;84330;84630;84927;85224;85531;85791;86088;86398;86701;86943;87287;87569;87860;88152;88447;88752;89077;89367;89630;89936;90206;90504;90831;91131;91400;91705;91993;92264;92553;92865;93192;93456;93763;94052;94314;94564;94914;95217;95551;95840;96088;96372;96663;96992;97274;97563;97858;98146;98433;98739;98999;99324;0;99852;100143;100444;100726;100985;101276;101570;101883;102152;102465;102742;102993;103319;103590;103907;104180;104466;104764;105042;105331;105629;105942;106230;106517;106803;107079;107370;107670;107960;108257;108561;108846;109120;109403;109690;109999;110319;110617;110911;111190;111446;111728;112048;112317;112628;112927;113227;113494;113783;114060;114348;114650;114916;115226;115472;115741;115968;116307;116597;116883;117136;117443;117716;117986;118262;118553;118845;119135;119458;119735;120021;120314;120610;120926;121241;121547;121814;122098;122385;122692;122992;123309;123608;123882;124163;124443;124724;124997;125299;125589;125870;126142;126400;126687;126967;127234;127548;127836;0;128366;128617;128902;129173;129466;129733;129995;130264;130516;130744;131020;131272;131528;131795;132064;132192;132573;132811;133074;133291;133597;133875;134139;134406;134681;134936;135192;135432;135725;136004;136287;136550;136845;137114;137395;137673;137949;138244;138539;138833;139087;139390;139664;139954;140241;140539;140799;141075;141369;141632;141878;142127;142417;142688;142957;143207;143458;143708;143967;144220;144499;144773;145000;145325;145594;145807;146116;146388;146677;146954;147233;147512;147779;147989;148307;148581;148855;149144;149416;149711;149972;150240;150501;150793;151058;151353;151638;151914;152166;152456;152727;153008;153298;153562;153873;154137;154397;154688;154951;155208;155499;155806;156071;156345;156597;156847;157116;157369;157637;157899;158173;158432;158677;158915;159174;159422;159680;159940;160206;160451;160703;160951;161202;161446;161704;161972;162253;162472;162781;163037;163307;163571;163842;164122;164408;164672;164937;165192;165446;165697;165971;166193;166514;166785;167059;167277;167583;167845;168132;168426;168729;169000;169295;169570;169842;170138;170435;170651;170992;171293;171572;171841;172141;172399;172691;172992;173272;173547;173826;174124;174372;174652;174942;175241;175531;175806;176093;176353;176646;176894;177169;177473;177743;177965;178237;178526;178787;179006;179276;179580;179875;180128;180365;180650;180905;181176;181465;181758;182027;182300;0;182843;183117;183416;183722;184011;184307;184595;184880;185157;185454;185745;186075;186372;186637;186933;187240;187497;187789;188059;188396;188710;188966;189255;189552;189846;190156;190449;190742;191035;191319;191602;191803;192196;192497;192811;193091;193347;193622;193939;194225;194494;194787;195105;195352;195628;195898;196210;196502;196768;197079;197362;197607;197866;198171;198446;198735;199015;199274;199565;199835;200062;200355;200652;200929;201209;201489;201751;202011;202285;202558;202837;203120;203409;203683;203964;204244;204518;204792;205079;205398;205676;205962;206234;206513;206789;207071;207361;207665;207951;208224;208493;208769;209043;209332;209624;209917;210200;210477;210757;211030;211308;211594;211894;212168;212448;212721;213003;213270;213479;213837;214116;214409;214684;214954;215227;215502;215788;216085;216371;216654;216934;217196;217495;217766;218062;218341;218648;218918;219191;219474;219757;220038;220330;220633;220923;221144;221469;221752;222023;222314;222611;222897;223170;223451;223729;223993;224270;224559;224857;225136;225417;225690;225968;226236;226516;226695;227089;227368;227648;227919;228182;228459;228748;229037;229317;229601;229880;230157;230425;230704;230986;231297;231582;231857;232134;232382;232672;232955;233245;233503;233799;234095;234359;234630;234899;235168;235487;235769;236050;236330;236610;236872;237144;237418;237725;238008;238265;238554;238828;239102;239376;239658;239940;240180;240482;240759;241011;241261;241531;241794;242058;242317;242575;242825;243077;243334;243592;243850;244106;244383;244677;244932;245190;245460;245666;246007;246296;246589;246884;247143;247412;247688;247961;248240;248532;248819;249102;249380;249653;249911;250215;250503;250798;251106;251391;251655;251940;252215;252529;252810;253102;253405;253670;253955;254226;254526;254823;255107;255397;255687;255959;256239;256516;256792;257097;257380;257654;257915;258170;258358;258679;258948;259219;259490;259755;260019;260285;260530;260795;261072;261357;261634;261911;262170;262459;262730;262986;263289;263583;263870;264144;264448;264719;265005;265293;265590;265888;266181;266454;266742;267043;267313;267600;267919;268197;268487;268766;269046;269329;269612;269900;270193;270489;270773;271038;271315;271602;271895;272132;272476;272783;273068;273338;273619;273861;274206;274504;274794;275075;275345;275612;275895;276180;276460;276744;277042;277336;277594;277867;278159;278461;278757;279040;279301;279508;279840;280159;280427;280736;281054;281322;281601;281883;282152;282433;282746;283014;283309;283617;283831;284138;284436;284691;284990;285308;285571;285862;286132;286413;286710;286967;287269;287601;287890;288145;288452;288738;289019;289287;289609;289917;290204;290487;290739;291057;291322;291614;291906;292203;292489;292797;293042;293329;293633;293927;294195;294503;294793;295061;295344;295638;295959;296234;296532;296814;297090;297369;297658;297954;298254;298568;298799;299153;299406;299700;299992;300274;300605;300890;301154;301434;301727;302004;302288;302583;302890;303186;303450;303729;304002;304296;304580;304866;305154;305426;305642;305979;306254;306555;306889;307179;307458;307684;307989;308296;308566;308856;309156;309461;309728;309998;310278;310565;310855;311142;311435;311720;312005;312267;312546;312753;313108;313425;313728;314009;314293;314611;314870;315160;315459;315760;316078;316356;316617;316924;317150;317504;317713;318092;318357;318672;318929;319145;319528;319822;320130;320424;320708;321020;321142;321578;321886;322197;322493;322781;323064;323376;323648;323963;324270;324585;324876;325163;325424;325728;326003;326316;326622;326909;327223;327487;327731;328071;328341;328673;328977;329262;329545;329828;330134;330446;330737;331042;331334;331628;331911;332203;332502;332816;333121;333428;333694;333974;334265;334557;334891;335187;335464;335752;336025;336306;336598;336893;337197;337518;337808;338067;338356;338638;338944;339268;339551;339872;340131;340414;340699;340995;341324;341600;341896;342219;342468;342748;343036;343321;343650;343913;344229;344482;344764;345045;345333;345640;345935;346258;346517;346740;347075;347398;347704;347982;348286;348579;348885;349144;349427;349727;350057;350327;350614;350871;351187;351416;351744;352029;352311;352646;352934;353177;353461;353752;354045;354341;354642;354898;355251;355504;355780;356079;356378;356677;356964;357277;357531;357823;358132;358405;358705;359029;359284;359581;359826;360109;360416;360675;360971;361260;361570;361843;362112;362377;362678;362971;363260;363548;363823;364103;364396;364677;364970;365271;365587;365856;366134;366427;366726;367007;367308;367610;367903;368193;368477;368769;369052;369352;369659;369956;370226;370503;370787;371072;371349;371644;371947;372246;372506;372781;373056;373371;373651;373941;374191;374541;374802;375070;375356;375654;375939;376229;376501;376805;377000;377353;377619;377950;378226;378525;378807;379109;379361;379649;379940;380255;380532;380819;381093;381373;381647;381927;382255;382526;382825;383101;383374;383660;383943;384234;384529;384862;385129;385407;385695;385975;386292;386565;386887;387155;387452;387760;388006;388321;388588;388860;389219;389509;389780;390075;390269;390649;390983;391280;391559;391844;392127;392414;392703;392941;393303;393596;393875;394192;394440;394720;395021;395318;395620;395915;396194;396497;396793;397052;0;397476;397927;398242;398517;398775;399088;399381;399643;399939;400237;400551;400826;401087;401374;401702;402009;402253;402592;402858;403056;403452;403725;404017;404345;404620;404903;405202;405488;405751;406053;406342;406663;406925;407236;407458;407791;408066;408338;408690;408954;409236;409524;409829;410094;410393;410695;410993;411300;411579;411841;412126;412457;412732;413029;413317;413609;413891;414167;414454;414765;415085;415356;415626;415913;416194;416471;416763;417067;417361;417656;417933;418204;418493;418784;419077;419370;419686;419965;420253;420488;420789;421084;421416;421707;421929;422241;422526;422749;423085;423386;423686;423983;424289;424536;424821;425130;425424;425707;426013;426322;426607;426857;427150;427441;427742;428049;428342;428619;428910;429219;429478;429781;430100;430386;430674;430960;431263;431532;431823;432129;432425;432745;433024;433287;433594;0;434128;434431;434728;435044;435292;435579;435869;0;436428;436767;437037;437320;437630;437896;438187;438488;438784;439077;439398;439659;439941;440231;440540;440850;441155;441466;441732;442032;442353;442551;442921;443225;443526;443813;444122;444390;444644;444984;445285;445546;445896;446154;446426;446717;447044;447318;447641;447900;448190;448468;448758;449059;449385;449681;449960;450273;450527;450758;451113;451445;451740;452023;452320;452597;452883;453166;453426;453770;454070;454370;454582;454922;455242;455526;455805;456105;456432;456690;456976;457252;457578;457888;458096;458443;458762;459026;459303;459616;459880;460193;460492;460776;461097;461353;461666;461928;462229;462535;462866;463121;463381;463689;463972;464276;464581;464877;465174;465465;465743;466028;466330;466627;466929;467225;467537;467800;468083;468405;468631;468980;469289;469613;469891;470151;470446;470752;471053;471388;471648;471965;472252;472535;472807;473137;473418;473712;473995;474308;474568;474863;475183;475464;475796;476064;476340;476653;476942;477225;477519;477845;478117;478428;478682;478986;479251;479549;479848;480138;480439;480703;480977;481277;481559;481884;482158;482443;482723;483015;483272;483553;483849;484138;484430;484712;484993;485272;485565;485856;486172;486501;486766;487054;487345;487665;487932;488178;488550;488877;489143;489419;489709;490035;490308;490643;490890;491207;491494;491776;492061;492361;492665;492970;493264;493546;493841;494116;494408;494703;495027;495292;495575;495851;496121;496413;0;496989;497291;497610;497866;498157;498457;498726;499033;499360;499623;499906;500188;500469;500766;501065;501359;501668;501957;502235;502522;502803;503105;503444;503742;504028;504295;504596;504860;505148;505485;505746;506042;506324;506605;506895;507181;507470;507770;508079;508375;508664;508945;509238;509540;509846;510142;510411;510728;511040;511290;511604;511884;512221;512484;512775;513063;513367;513667;513932;514262;514544;514842;515121;515398;515678;516008;516254;516591;516889;517186;517471;517754;518042;518368;518645;518973;519239;519541;519831;520089;520393;520688;520909;521261;521576;521838;522127;522457;522736;523034;523365;523627;523917;524198;524524;524835;525140;525413;525649;525996;526276;526565;526859;527157;527469;527760;528042;528328;528612;528911;529218;529518;529816;530108;530389;530680;530973;531273;531588;531888;532182;532464;532751;532983;533332;533632;533928;534228;534514;534821;535079;535383;535687;535986;536284;536569;536850;537137;537424;537728;538061;538340;538628;538912;539202;539519;539816;540089;540388;540690;540975;541255;541542;541833;542146;542451;542715;543037;543330;543614;543900;544214;544504;544839;545017;545378;545688;545968;546251;546516;546689;547146;547403;547676;547951;548251;548548;548846;549105;549449;549706;549991;550298;550555;550867;551133;551455;551741;552039;552279;552596;552896;553197;553506;553825;554073;554359;554640;554939;555240;555535;555831;556126;556412;556688;556976;557277;557584;557882;558165;558444;558760;559023;559317;559618;559917;560198;560495;560767;561086;561352;561650;561938;562257;562488;562749;563090;563368;563644;563976;564243;564527;564824;565081;565400;565655;565959;566186;566537;566825;567105;0;567613;567940;568241;568543;568837;569128;569361;569711;569981;570280;570586;570875;571192;571458;571752;572068;572346;572681;572986;573253;573533;573815;574113;574356;574706;575016;575308;575600;575879;576171;576465;576809;577079;577372;577661;577941;578231;578527;578842;579122;579378;579713;580023;580280;580564;580865;581162;581467;581751;582040;582326;582621;582835;583122;583457;583737;584047;584286;584532;584848;585120;585371;585620;585937;586152;586471;586721;586976;587244;587517;587786;588057;588323;588571;588855;589105;589396;589686;589874;590263;590532;590792;591088;591295;591647;591941;592228;592516;592779;593016;593336;593631;593933;594232;594490;594801;595071;595348;595629;595937;596220;596527;596806;597082;597347;597599;597870;598127;598399;598653;598915;599164;599414;599651;599890;600164;600429;600678;600950;601218;601481;601746;602008;602276;602505;602778;603106;603398;603662;603930;604199;604506;604789;605087;605402;605682;605953;606232;606532;606824;607121;607403;607709;607974;608257;608495;608796;609050;609345;609632;609934;610188;610491;610744;611051;611339;611645;611867;612192;612490;612766;613041;613317;613594;613902;614203;614431;614763;615012;615288;615588;615911;616199;616475;616729;616991;617316;617602;617865;618168;618473;618754;619008;619285;619567;619873;620192;620461;620744;621022;621283;621583;621864;622165;622485;622747;623011;623318;623529;623835;624117;624402;624684;624968;625232;625502;625771;626083;626365;626632;626939;627199;627477;627775;628030;628308;628603;628899;629086;629418;629690;629947;630214;630423;630724;631027;631302;631536;631841;632087;632299;632634;632902;633121;633439;633712;633975;634231;634493;634772;635051;635336;635629;635912;636183;636467;636760;637030;637344;637645;637916;638204;638490;638767;639066;639364;639664;639961;640280;640566;640860;641100;641419;641695;641989;642265;642513;642806;643083;643326;643662;643920;644205;644494;644735;644953;645226;645477;645810;646015;646289;646579;646868;647114;647343;647593;647877;648147;648407;648681;648906;