350;644;926;1212;1500;1790;2026;2383;2688;2981;3265;3549;3841;4147;4447;4748;5042;5328;5612;5900;6197;6506;6804;7087;7369;7651;7942;8226;8521;8819;9126;9414;9692;9978;10266;10565;10874;11180;11466;11762;12049;12327;12626;12930;13242;13544;13825;14113;14402;14694;14991;15290;15588;15882;16165;16446;16740;17040;17340;17636;17935;18206;18494;18775;19069;19369;19672;19970;20247;20537;20817;21114;21404;21710;22010;22303;22586;22863;23144;23434;23737;24032;24318;24615;24892;25178;25466;25765;26065;26367;26653;26935;27218;27519;27820;28111;28413;28707;28994;29276;29560;29852;30164;30469;30759;31054;31330;31616;31905;32206;32506;32816;33107;33387;33671;33957;34255;34556;34850;35147;35434;35717;35998;36289;36586;36897;37196;37485;37763;38051;38338;38631;38939;39231;39527;39807;40079;40362;40655;40954;41249;41550;41832;42098;42396;42672;42980;43288;43584;43872;44155;44436;44725;45012;45305;45610;45907;46190;46462;46741;47020;47316;47610;47903;48194;48467;48746;49025;49305;49601;49903;50191;50481;50755;51038;51319;51606;51902;52195;52489;52771;53047;53323;53614;53905;54200;54489;54768;55047;55327;55604;55892;56186;56481;56757;57038;57315;57595;57882;58179;58472;58768;59061;59337;59613;59895;60194;60494;60800;61087;61376;61660;61941;62229;62529;62830;63130;63424;63694;63980;64274;64562;64857;65157;65446;65732;66009;66290;66583;66781;67109;67413;67702;67990;68284;68572;68865;69172;69483;69778;70059;70338;70626;70917;71224;71519;71826;72120;72398;72684;72980;73283;73588;73888;74178;74466;74748;74969;75313;75615;75912;76216;76498;76769;77058;77347;77646;77943;78234;78520;78810;79088;79368;79669;79953;80273;80564;80852;81132;81420;81710;82010;82304;82617;82906;83192;83474;83776;84081;84387;84679;84992;85280;85562;85852;86151;86458;86763;87058;87344;87633;87922;88211;88514;88814;89114;89392;89685;89968;90267;90573;90860;91169;91458;91745;92027;92315;92615;92928;93225;93515;93807;94085;94373;94673;94978;95281;95588;95877;96152;96432;96720;97031;97330;97624;97914;98209;98493;98771;99062;99360;99568;99913;100196;100477;100765;101049;101340;101634;101923;102216;102499;102770;103056;103351;103647;103940;104243;104526;104807;105099;105386;105687;105993;106292;106580;106869;107143;107437;107731;108021;108325;108626;108908;109182;109467;109754;110059;110356;110655;110942;111230;111506;111789;112089;112384;112689;112978;113263;113544;113829;114119;114410;114698;114977;115258;115528;115796;116066;116350;116636;116912;117196;117472;117748;118030;118305;118588;118895;119189;119494;119775;120063;120358;120657;120970;121278;121588;121871;122152;122439;122733;123030;123343;123642;123918;124199;124479;124758;125030;125325;125628;125909;126187;126458;126727;126997;127296;127585;127872;128072;128410;128685;128948;129211;129504;129780;130038;130295;130550;130797;131055;131306;131558;131823;132095;132361;132602;132858;133117;133371;133645;133913;134179;134436;134723;134972;135225;135488;135764;136042;136330;136611;136882;137150;137429;137709;137990;138286;138576;138868;139148;139421;139701;139990;140282;140583;140860;141136;141390;141665;141930;142193;142456;142732;142991;143248;143501;143747;144005;144273;144539;144811;145092;145365;145631;145884;146149;146428;146712;146993;147265;147547;147816;148080;148343;148618;148897;149185;149470;149750;150012;150281;150565;150833;151112;151393;151680;151956;152219;152492;152762;153048;153351;153625;153900;154177;154454;154724;154992;155269;155569;155846;156115;156378;156631;156885;157150;157412;157678;157947;158216;158468;158715;158963;159207;159463;159718;159987;160240;160486;160737;160989;161232;161473;161736;162017;162287;162555;162819;163077;163347;163612;163888;164166;164446;164703;164976;165227;165471;165737;166012;166283;166539;166837;167093;167340;167616;167896;168172;168463;168762;169057;169332;169609;169885;170183;170471;170701;171057;171350;171629;171903;172184;172464;172758;173049;173330;173610;173888;174158;174433;174717;175003;175304;175587;175846;176126;176409;176678;176954;177226;177506;177777;178041;178299;178556;178821;179098;179367;179643;179907;180166;180424;180688;180944;181216;181503;181792;182067;182332;182600;182877;183161;183458;183759;184049;184344;184633;184917;185194;185492;185811;186110;186407;186695;186986;187272;187557;187858;188159;188451;188741;189023;189309;189606;189906;190205;190510;190803;191093;191365;191654;191957;192262;192556;192834;193128;193411;193688;193974;194262;194562;194848;195130;195406;195683;195960;196247;196540;196825;197111;197396;197665;197933;198206;198485;198773;199049;199334;199602;199874;200138;200416;200684;200979;201260;201528;201787;202051;202321;202592;202874;203162;203450;203724;204002;204285;204554;204836;205140;205434;205718;205994;206271;206549;206823;207110;207405;207704;207986;208257;208532;208803;209077;209373;209666;209954;210235;210513;210793;211065;211335;211635;211920;212210;212482;212757;213038;213308;213586;213874;214164;214447;214720;214988;215264;215543;215829;216118;216413;216692;216970;217256;217528;217804;218103;218396;218684;218955;219227;219508;219791;220077;220373;220672;220959;221234;221511;221787;222063;222353;222647;222933;223209;223490;223755;224027;224308;224602;224903;225178;225453;225724;226001;226277;226552;226841;227123;227405;227684;227957;228219;228497;228783;229064;229358;229641;229917;230195;230465;230741;231040;231333;231621;231888;232174;232439;232713;232987;233285;233568;233856;234133;234399;234666;234936;235229;235524;235810;236086;236371;236643;236907;237185;237478;237766;238048;238325;238590;238866;239136;239416;239699;239976;240244;240516;240790;241048;241301;241563;241837;242095;242358;242616;242860;243114;243372;243624;243888;244165;244444;244710;244968;245227;245491;245772;246043;246331;246627;246918;247181;247447;247722;247998;248281;248569;248861;249138;249418;249689;249971;250254;250538;250841;251143;251425;251689;251977;252259;252563;252848;253141;253440;253724;253991;254263;254563;254870;255151;255436;255720;256009;256278;256554;256835;257136;257420;257696;257947;258207;258458;258720;258985;259262;259524;259791;260049;260318;260569;260832;261104;261399;261671;261950;262220;262501;262771;263042;263331;263619;263912;264198;264480;264752;265041;265334;265623;265926;266218;266510;266796;267075;267357;267662;267962;268239;268522;268805;269084;269364;269653;269939;270237;270529;270803;271077;271352;271641;271933;272222;272515;272817;273104;273375;273657;273939;274245;274541;274834;275109;275385;275654;275919;276217;276499;276782;277082;277357;277630;277904;278193;278498;278795;279077;279364;279554;279899;280190;280492;280797;281092;281384;281663;281927;282213;282495;282773;283077;283364;283655;283925;284199;284459;284754;285057;285345;285635;285918;286192;286463;286743;287033;287325;287634;287926;288207;288474;288774;289057;289351;289649;289951;290240;290520;290796;291089;291385;291677;291972;292262;292548;292826;293106;293395;293694;293990;294278;294560;294840;295122;295405;295699;295994;296300;296593;296871;297151;297429;297720;298014;298315;298609;298900;299182;299464;299740;300033;300334;300645;300921;301191;301478;301755;302048;302328;302623;302924;303220;303484;303754;304047;304340;304620;304905;305192;305479;305687;306016;306317;306622;306921;307216;307496;307726;308042;308333;308604;308891;309197;309494;309762;310031;310314;310602;310894;311178;311467;311769;312042;312311;312587;312804;313170;313487;313788;314069;314352;314646;314934;315230;315527;315825;316116;316397;316674;316957;317248;317543;317766;318127;318420;318708;318980;319206;319567;319883;320184;320473;320768;321054;321352;321644;321947;322255;322555;322838;323118;323408;323708;324021;324311;324619;324910;325197;325467;325764;326067;326373;326679;326961;327256;327547;327837;328132;328435;328735;329037;329320;329599;329895;330195;330506;330801;331102;331395;331684;331967;332260;332570;332879;333176;333461;333752;334041;334318;334616;334925;335228;335525;335812;336083;336368;336653;336960;337264;337553;337832;338128;338411;338699;339006;339311;339607;339906;340186;340474;340762;341056;341362;341657;341958;342250;342526;342804;343092;343387;343687;343975;344260;344527;344822;345110;345397;345694;345997;346290;346578;346787;347126;347436;347741;348045;348337;348636;348915;349196;349483;349780;350094;350390;350672;350961;351247;351464;351800;352099;352395;352692;352970;353240;353523;353811;354106;354405;354699;354997;355285;355561;355827;356145;356444;356738;357015;357307;357591;357879;358164;358459;358767;359072;359344;359614;359883;360160;360453;360742;361030;361322;361605;361875;362145;362432;362711;363008;363298;363586;363860;364138;364424;364709;365003;365310;365619;365891;366172;366452;366760;367044;367343;367656;367942;368229;368514;368806;369088;369389;369691;369990;370260;370537;370824;371110;371383;371683;371988;372280;372540;372816;373105;373409;373688;373981;374281;374575;374834;375105;375382;375697;375978;376267;376557;376842;377060;377385;377672;377985;378289;378589;378866;379142;379423;379709;379994;380294;380592;380877;381147;381435;381703;381992;382291;382587;382876;383164;383433;383721;384009;384297;384596;384897;385186;385467;385750;386032;386331;386628;386914;387218;387514;387795;388070;388355;388649;388958;389252;389546;389841;390135;390418;390712;391016;391323;391623;391906;392184;392476;392762;393059;393359;393645;393942;394227;394500;394781;395080;395376;395676;395970;396250;396534;396828;397115;397314;397685;397990;398274;398550;398832;399121;399414;399709;400003;400298;400579;400860;401146;401432;401731;402043;402342;402629;402902;403195;403489;403784;404082;404383;404678;404960;405235;405523;405819;406112;406403;406695;406987;407265;407544;407828;408133;408433;408722;409012;409296;409572;409863;410157;410457;410761;411052;411331;411613;411897;412176;412491;412792;413090;413384;413673;413947;414230;414517;414830;415123;415402;415684;415975;416254;416536;416828;417128;417425;417711;417986;418262;418556;418845;419138;419434;419722;420005;420284;420567;420851;421154;421454;421744;421977;422303;422585;422788;423148;423433;423743;424042;424322;424599;424875;425169;425470;425772;426059;426362;426641;426921;427205;427504;427808;428108;428394;428679;428973;429256;429538;429845;430145;430450;430730;431015;431297;431596;431891;432190;432490;432779;433059;433349;433631;433830;434190;434494;434791;435076;435352;435640;435934;436133;436487;436805;437099;437382;437666;437945;438247;438547;438841;439139;439435;439716;440003;440291;440603;440915;441210;441499;441795;442087;442387;442595;442973;443286;443588;443869;444158;444452;444691;445040;445340;445640;445929;446197;446487;446775;447081;447381;447666;447961;448245;448528;448814;449117;449420;449719;450019;450308;450587;450865;451174;451484;451787;452081;452373;452660;452938;453228;453518;453830;454133;454426;454632;454980;455273;455567;455868;456167;456465;456749;457020;457313;457612;457918;458142;458507;458798;459084;459361;459646;459942;460255;460548;460836;461128;461412;461704;461994;462293;462600;462888;463177;463462;463745;464029;464346;464642;464941;465238;465512;465800;466086;466386;466675;466992;467288;467570;467855;468145;468440;468744;469040;469344;469641;469924;470211;470510;470815;471117;471422;471709;471999;472286;472572;472863;473181;473481;473769;474055;474339;474633;474921;475220;475527;475833;476120;476397;476689;476980;477289;477583;477880;478171;478462;478738;479020;479313;479614;479913;480200;480477;480760;481040;481323;481619;481923;482222;482507;482784;483052;483332;483615;483911;484199;484481;484768;485055;485333;485624;485920;486233;486538;486827;487113;487402;487698;487996;488302;488610;488914;489197;489479;489769;490072;490366;490676;490973;491268;491547;491832;492125;492425;492731;493027;493321;493604;493896;494181;494471;494767;495065;495354;495631;495907;496182;496477;496685;497058;497353;497646;497918;498212;498494;498782;499083;499392;499682;499969;500242;500529;500827;501127;501418;501728;502015;502293;502580;502858;503170;503476;503775;504057;504352;504637;504916;505207;505510;505810;506107;506368;506661;506950;507236;507532;507839;508139;508437;508723;509008;509300;509603;509906;510192;510497;510782;511076;511356;511642;511950;512256;512549;512832;513113;513407;513690;514000;514299;514607;514901;515176;515459;515741;516046;516354;516655;516953;517248;517535;517814;518106;518407;518713;519011;519293;519576;519865;520133;520447;520748;520963;521323;521613;521897;522191;522493;522793;523094;523399;523687;523980;524251;524557;524869;525175;525464;525762;526046;526337;526628;526922;527223;527528;527820;528098;528385;528669;528972;529279;529580;529878;530173;530455;530742;531038;531336;531649;531949;532236;532525;532797;533102;533397;533697;533990;534289;534571;534854;535142;535428;535748;536050;536343;536621;536910;537183;537487;537790;538094;538401;538689;538975;539260;539556;539852;540153;540453;540747;541034;541313;541588;541893;542205;542510;542806;543099;543388;543671;543964;544269;544569;544876;545163;545434;545723;546003;546286;546580;546771;547180;547462;547738;548017;548314;548613;548908;549203;549484;549766;550050;550331;550620;550931;551230;551512;551794;552076;552368;552660;552961;553259;553570;553859;554133;554421;554704;555009;555303;555596;555893;556185;556469;556746;557041;557343;557649;557943;558221;558504;558784;559079;559378;559678;559978;560273;560556;560830;561123;561414;561703;562005;562291;562572;562794;563113;563400;563711;564011;564301;564583;564864;565146;565436;565722;566022;566239;566598;566881;567163;567361;567703;568000;568303;568604;568898;569186;569462;569743;570040;570343;570650;570938;571230;571519;571809;572102;572408;572713;573020;573307;573590;573875;574172;574410;574766;575076;575367;575660;575933;576230;576530;576842;577143;577434;577723;578004;578288;578577;578882;579182;579429;579771;580054;580340;580629;580928;581229;581528;581816;582103;582380;582652;582903;583221;583520;583802;584078;584344;584601;584884;585157;585424;585712;585994;586258;586508;586754;587012;587276;587553;587822;588093;588358;588623;588887;589156;589436;589727;590020;590297;590571;590847;591125;591398;591684;591977;592270;592553;592832;593050;593368;593663;593970;594258;594540;594837;595109;595382;595662;595973;596259;596551;596856;597118;597372;597653;597907;598167;598440;598695;598950;599202;599452;599683;599933;600194;600462;600718;600989;601252;601517;601780;602046;602310;602587;602874;603161;603437;603702;603967;604258;604543;604824;605117;605437;605723;605988;606271;606564;606858;607155;607457;607744;608023;608287;608557;608832;609109;609409;609697;609972;610244;610520;610801;611084;611381;611675;611954;612246;612523;612801;613088;613380;613675;613964;614240;614522;614797;615072;615351;615655;615949;616232;616507;616785;617061;617349;617637;617929;618229;618508;618784;619063;619342;619629;619933;620227;620523;620800;621086;621362;621643;621926;622228;622522;622804;623072;623349;623621;623901;624173;624460;624747;625029;625292;625558;625833;626121;626404;626693;626982;627262;627533;627809;628085;628371;628670;628960;629154;629473;629744;630006;630259;630542;630813;631090;631359;631618;631879;632135;632394;632665;632940;633210;633475;633750;634008;634267;634524;634805;635084;635375;635665;635947;636212;636499;636794;637082;637383;637686;637980;638264;638544;638828;639122;639428;639726;640022;640309;640597;640880;641147;641456;641757;642049;642321;642597;642866;643145;643419;643701;643983;644272;644518;644788;645033;645290;645559;645842;646114;646371;646636;646899;647151;647397;647654;647914;648173;648454;648716;648962;