474;755;1064;1323;1612;1913;2141;2507;2834;3122;3404;3653;3959;4264;4604;4865;5153;5480;5730;6016;6323;6629;6917;7199;7513;7769;8051;8340;8678;8939;9233;9553;9842;10097;10387;10685;11030;11286;11574;11901;12188;12443;12743;13056;13367;13655;13976;14225;14520;14806;15102;15440;15707;15989;16284;16591;16860;17153;17453;17793;18043;18319;18638;18887;19182;19475;19821;20092;20364;20678;20934;21233;21528;21860;22135;22416;22698;23007;23289;23562;23856;24183;24445;24727;25035;25296;25590;25884;26191;26490;26773;27048;27337;27631;27932;28231;28563;28825;29112;29382;29676;29978;30282;30616;30877;31158;31441;31735;32029;32323;32669;32968;33218;33493;33810;34080;34376;34670;34975;35268;35551;35860;36137;36444;36705;37042;37312;37594;37880;38201;38445;38756;39046;39383;39633;39921;40185;40518;40778;41067;41401;41662;41971;42213;42513;42801;43102;43408;43702;43989;44266;44581;44836;45130;45424;45724;46024;46294;46602;46846;47140;47435;47722;48043;48298;48569;48889;49139;49420;49720;50059;50315;50590;50900;51181;51437;51720;52019;52345;52601;52872;53141;53442;53735;54056;54356;54638;54880;55158;55466;55749;56010;56304;56631;56880;57183;57460;57741;57996;58290;58617;58896;59178;59481;59752;60040;60313;60613;60918;61206;61495;61771;62086;62347;62647;62948;63270;63530;63805;64133;64393;64675;65008;65269;65563;65839;66121;66437;66661;66894;67226;67565;67821;68108;68435;68696;68990;69297;69623;69884;70167;70442;70769;71075;71343;71670;71938;72232;72513;72801;73123;73407;73707;74008;74334;74583;74860;75076;75435;75730;76036;76363;76639;76882;77171;77503;77764;78053;78347;78662;78917;79188;79514;79787;80099;80387;80708;80990;81246;81534;81867;82130;82439;82734;83022;83338;83586;83892;84236;84510;84806;85105;85399;85675;85974;86306;86587;86881;87202;87489;87745;88072;88361;88638;88934;89261;89522;89798;90113;90418;90685;90980;91319;91574;91862;92139;92459;92738;93043;93333;93627;93920;94196;94490;94791;95097;95403;95705;95986;96261;96549;96882;97183;97450;97738;98065;98321;98601;98881;99183;99478;99682;100024;100340;100597;100876;101198;101485;101757;102046;102367;102612;102881;103175;103469;103769;104057;104363;104673;104927;105210;105531;105810;106111;106410;106725;106979;107256;107582;107855;108144;108444;108772;109022;109296;109612;109873;110179;110473;110794;111055;111337;111619;111908;112201;112507;112807;113128;113377;113654;113942;114267;114556;114844;115094;115398;115639;115943;116211;116502;116750;117032;117313;117630;117865;118175;118420;118745;119018;119357;119605;119910;120177;120471;120809;121094;121401;121734;122016;122270;122559;122853;123141;123459;123753;124029;124319;124600;124909;125164;125458;125752;126055;126298;126574;126850;127132;127407;127735;127991;128178;128519;128788;129046;129329;129617;129888;130157;130416;130683;130906;131166;131406;131682;131945;132183;132508;132720;132972;133251;133488;133758;134061;134325;134557;134826;135106;135364;135601;135877;136197;136480;136723;137026;137291;137534;137801;138098;138436;138692;138975;139295;139565;139859;140141;140403;140696;141011;141249;141513;141808;142029;142331;142613;142844;143142;143356;143602;143859;144117;144375;144651;144927;145242;145479;145737;145990;146286;146548;146823;147150;147382;147659;147954;148211;148456;148771;149047;149308;149585;149854;150157;150394;150672;150979;151217;151505;151793;152062;152333;152601;152918;153161;153461;153731;154041;154290;154565;154868;155139;155393;155688;155997;156228;156486;156772;156998;157260;157563;157783;158053;158323;158614;158815;159061;159351;159571;159881;160100;160352;160631;160876;161090;161335;161627;161890;162134;162444;162700;162914;163223;163456;163718;163995;164282;164553;164850;165080;165372;165617;165849;166120;166428;166692;166963;167188;167491;167766;168005;168324;168624;168868;169157;169465;169714;170002;170291;170585;170813;171172;171488;171776;172013;172316;172609;172878;173160;173436;173724;174000;174265;174546;174828;175121;175422;175732;175968;176240;176520;176841;177073;177343;177612;177927;178152;178411;178669;178937;179214;179484;179749;180054;180277;180534;180826;181086;181366;181622;181908;182201;182482;182714;183017;183311;183599;183871;184205;184486;184742;185024;185306;185607;185925;186236;186551;186813;187093;187372;187675;187970;188277;188577;188859;189140;189423;189723;190017;190324;190628;190912;191200;191526;191769;192081;192375;192673;192958;193267;193517;193797;194126;194380;194680;194962;195282;195513;195795;196065;196405;196687;196942;197224;197533;197782;198041;198353;198638;198899;199169;199478;199747;199991;200255;200525;200807;201095;201371;201673;201932;202157;202433;202742;202984;203274;203588;203865;204108;204390;204692;204987;205292;205554;205861;206104;206376;206664;206967;207261;207515;207822;208098;208368;208645;208920;209229;209511;209779;210060;210382;210658;210900;211215;211491;211758;212092;212360;212625;212875;213146;213453;213731;214018;214278;214589;214859;215101;215370;215687;215974;216236;216530;216806;217082;217363;217668;217953;218222;218522;218798;219095;219338;219624;219902;220196;220490;220823;221099;221336;221618;221894;222215;222467;222770;223046;223323;223598;223868;224170;224459;224720;225014;225278;225594;225837;226112;226422;226676;226959;227274;227550;227837;228062;228364;228642;228907;229191;229466;229748;230031;230339;230609;230890;231158;231453;231761;232005;232281;232590;232871;233121;233402;233690;233972;234243;234502;234805;235058;235353;235647;235950;236200;236482;236789;237055;237304;237591;237884;238156;238430;238708;239005;239281;239531;239817;240082;240391;240640;240898;241147;241413;241684;241983;242244;242463;242716;243006;243260;243478;243730;244040;244282;244557;244814;245062;245371;245608;245923;246200;246442;246742;247019;247320;247552;247828;248110;248431;248719;248969;249245;249564;249802;250078;250373;250695;250959;251249;251563;251794;252089;252383;252677;252965;253254;253553;253829;254093;254369;254688;254993;255308;255539;255833;256127;256425;256661;256956;257256;257571;257808;258059;258306;258596;258868;259104;259368;259669;259902;260172;260457;260709;260940;261228;261510;261815;262062;262369;262635;262859;263154;263448;263769;264024;264312;264588;264902;265184;265446;265746;266035;266372;266622;266910;267193;267507;267774;268074;268389;268638;268920;269235;269466;269766;270060;270347;270648;270913;271189;271460;271758;272085;272329;272628;272935;273215;273483;273775;274069;274357;274645;274939;275259;275531;275794;276044;276331;276640;276934;277190;277478;277780;278051;278344;278612;278906;279227;279464;279674;280004;280332;280604;280910;281199;281483;281762;282044;282327;282640;282929;283230;283480;283756;284070;284301;284583;284875;285169;285453;285747;286029;286294;286614;286857;287152;287451;287745;288028;288322;288598;288919;289207;289474;289761;290056;290338;290632;290909;291196;291497;291803;292090;292412;292655;292976;293214;293495;293807;294146;294395;294678;294986;295268;295517;295812;296110;296445;296706;296982;297252;297540;297840;298135;298461;298755;299042;299298;299574;299889;300189;300463;300763;301066;301291;301585;301873;302188;302482;302777;303049;303332;303623;303892;304165;304465;304770;305057;305305;305594;305798;306161;306427;306740;307041;307367;307597;307826;308157;308438;308754;309043;309315;309603;309898;310169;310425;310725;311045;311326;311583;311877;312186;312457;312699;312921;313287;313637;313938;314181;314503;314798;315072;315339;315634;315933;316261;316509;316791;317068;317394;317657;317881;318271;318572;318854;319107;319318;319730;320029;320302;320584;320861;321103;321467;321762;322067;322373;322661;322982;323225;323520;323866;324144;324438;324731;325059;325342;325592;325885;326184;326496;326796;327078;327405;327655;327955;328249;328555;328849;329149;329431;329719;330045;330348;330618;330913;331240;331552;331794;332090;332378;332672;333030;333296;333567;333860;334154;334443;334742;335070;335388;335670;335917;336189;336510;336782;337077;337377;337659;337959;338240;338517;338817;339122;339430;339724;340011;340294;340632;340876;341213;341515;341775;342076;342352;342634;342955;343216;343510;343837;344125;344418;344651;344965;345214;345515;345826;346115;346429;346685;346895;347243;347555;347849;348199;348462;348743;349031;349325;349607;349908;350201;350496;350789;351072;351360;351609;351918;352216;352512;352799;353076;353352;353634;353928;354256;354522;354816;355098;355387;355669;355957;356295;356590;356852;357139;357427;357736;357991;358285;358584;358885;359211;359461;359718;359989;360279;360565;360859;361147;361441;361750;361981;362258;362547;362866;363115;363415;363698;363962;364284;364539;364866;365121;365433;365733;366029;366278;366573;366873;367194;367462;367767;368037;368326;368625;368920;369207;369514;369815;370108;370367;370681;370936;371224;371534;371795;372111;372388;372685;372917;373222;373522;373839;374092;374404;374687;374974;375254;375509;375842;376085;376418;376665;376956;377204;377490;377802;378101;378402;378697;378978;379243;379575;379830;380119;380406;380706;380988;381263;381578;381843;382111;382410;382663;383020;383276;383546;383833;384160;384409;384721;385009;385291;385613;385855;386182;386443;386788;387041;387338;387596;387939;388178;388460;388765;389111;389377;389654;389981;390243;390524;390824;391168;391470;391736;392008;392332;392588;392883;393177;393477;393771;394047;394329;394645;394902;395199;395492;395781;396115;396363;396640;396928;397222;397431;397804;398103;398385;398652;398978;399266;399531;399853;400148;400442;400696;400974;401249;401549;401861;402153;402482;402770;403024;403307;403595;403935;404239;404501;404827;405094;405347;405635;405968;406262;406517;406805;407094;407375;407652;407946;408280;408552;408834;409161;409437;409698;409974;410307;410612;410878;411169;411477;411759;412009;412304;412648;412915;413210;413498;413813;414088;414348;414637;414942;415270;415519;415795;416117;416358;416658;416953;417280;417579;417818;418094;418369;418663;418963;419251;419590;419872;420116;420397;420668;421007;421272;421567;421856;422116;422414;422702;422912;423254;423564;423865;424187;424469;424713;424988;425322;425627;425884;426176;426504;426780;427033;427324;427662;427922;428228;428510;428787;429119;429368;429657;429963;430296;430597;430845;431121;431416;431748;432004;432310;432636;432925;433179;433455;433743;433934;434308;434608;434935;435215;435466;435754;436042;436240;436612;436912;437239;437522;437771;438064;438403;438703;438970;439259;439573;439861;440112;440405;440717;441029;441323;441612;441939;442199;442505;442716;443127;443400;443695;443982;444314;444569;444838;445158;445459;445752;446075;446316;446598;446932;447199;447510;447787;448069;448395;448645;448932;449228;449544;449846;450139;450454;450697;450998;451292;451630;451931;452198;452486;452807;453077;453343;453650;453950;454249;454533;454743;455096;455417;455717;455991;456284;456579;456892;457137;457426;457724;458031;458265;458619;458907;459196;459478;459760;460065;460370;460666;460954;461273;461557;461818;462118;462445;462718;463018;463288;463570;463852;464141;464459;464752;465086;465348;465634;465911;466193;466533;466812;467110;467432;467675;467981;468263;468539;468864;469157;469470;469802;470028;470327;470628;470934;471239;471535;471822;472110;472397;472692;472987;473325;473592;473882;474168;474451;474779;475045;475337;475644;475978;476233;476509;476796;477092;477409;477704;477997;478285;478579;478850;479137;479426;479770;480090;480308;480622;480869;481158;481436;481775;482069;482341;482612;482882;483158;483452;483734;484067;484310;484598;484875;485163;485483;485739;486044;486351;486651;486939;487221;487516;487815;488121;488421;488727;489028;489308;489592;489923;490186;490491;490792;491090;491415;491662;491937;492238;492544;492850;493144;493433;493721;494009;494296;494584;494891;495184;495467;495743;496046;496328;496601;496811;497166;497505;497758;498041;498356;498646;498912;499217;499517;499833;500108;500366;500652;500990;501240;501542;501840;502122;502397;502698;502986;503286;503632;503919;504176;504463;504741;505027;505327;505627;505966;506253;506491;506773;507093;507388;507651;507950;508250;508589;508838;509108;509414;509759;510026;510326;510615;510895;511217;511467;511761;512067;512413;512659;512943;513258;513514;513821;514113;514459;514725;515013;515288;515603;515853;516198;516471;516766;517105;517386;517641;517897;518218;518557;518870;519124;519400;519682;520002;520247;520558;520870;521113;521467;521721;522010;522310;522616;522916;523210;523542;523834;524094;524375;524707;524982;525299;525587;525875;526164;526478;526777;527039;527372;527652;527937;528209;528491;528817;529092;529397;529691;530031;530281;530562;530894;531189;531467;531774;532099;532344;532638;532925;533247;533543;533813;534109;534402;534711;534966;535255;535560;535860;536160;536453;536742;537018;537300;537601;537913;538213;538546;538839;539089;539377;539696;539971;540277;540577;540859;541178;541428;541717;542016;542351;542623;542922;543212;543505;543781;544087;544393;544693;544987;545275;545552;545833;546143;546436;546627;546886;547297;547612;547850;548131;548464;548732;549053;549316;549596;549872;550165;550442;550736;551041;551341;551624;551912;552227;552515;552783;553070;553415;553682;553970;554240;554568;554816;555128;555422;555710;556049;556325;556575;556861;557150;557495;557762;558062;558333;558615;558903;559224;559503;559791;560097;560412;560669;560938;561243;561531;561819;562125;562395;562678;562901;563236;563523;563870;564130;564413;564700;565009;565291;565552;565839;566133;566350;566717;566992;567281;567467;567847;568124;568422;568715;569009;569297;569575;569861;570194;570493;570773;571049;571364;571632;571931;572219;572570;572858;573137;573419;573695;573983;574290;574537;574885;575228;575484;575773;576052;576341;576641;576960;577259;577576;577830;578118;578406;578700;579006;579306;579544;579882;580164;580447;580773;581046;581348;581636;581922;582238;582486;582763;583006;583333;583670;583955;584185;584494;584725;585001;585310;585558;585830;586138;586402;586609;586862;587126;587396;587693;587936;588206;588502;588734;588993;589269;589551;589844;590138;590403;590684;590961;591270;591506;591806;592100;592421;592671;592947;593163;593508;593777;594087;594408;594658;594957;595254;595497;595786;596091;596406;596679;596968;597265;597501;597764;598005;598283;598551;598804;599094;599307;599582;599826;600051;600315;600574;600832;601141;601372;601663;601910;602150;602422;602753;602992;603274;603577;603843;604105;604366;604660;604969;605243;605548;605850;606122;606371;606682;607009;607272;607569;607904;608155;608393;608662;608984;609239;609521;609835;610100;610355;610625;610947;611233;611496;611829;612081;612353;612662;612905;613206;613532;613822;614121;614352;614628;614942;615186;615468;615807;616090;616344;616647;616929;617210;617494;617743;618082;618371;618631;618901;619177;619496;619747;620042;620329;620641;620923;621187;621509;621757;622040;622378;622660;622954;623186;623487;623766;624007;624290;624605;624892;625163;625406;625704;625974;626230;626517;626798;627113;627413;627644;627953;628224;628530;628779;629019;629260;629583;629847;630112;630387;630653;630959;631243;631472;631751;632016;632242;632512;632788;633052;633356;633592;633862;634148;634378;634636;634919;635240;635527;635777;636053;636368;636638;636904;637232;637482;637799;638088;638364;638685;638941;639234;639566;639836;640134;640416;640743;641031;641274;641613;641907;642190;642427;642735;643007;643295;643538;643812;644134;644384;644634;644890;645178;645417;645680;645994;646252;646495;646753;646998;647284;647503;647768;648025;648301;648566;648844;649090;