309;604;899;1172;1433;1747;1986;2338;2643;2938;3236;3499;3795;4118;4401;4700;5000;5286;5581;5857;6146;6475;6757;7040;7343;7607;7887;8181;8491;8773;9080;9368;9663;9937;10233;10499;10827;11128;11419;11733;12002;12281;12579;12884;13213;13501;13790;14067;14360;14650;14944;15258;15542;15837;16123;16408;16693;17027;17261;17607;17882;18164;18420;18746;19018;19349;19629;19941;20222;20505;20787;21063;21362;21664;21963;22262;22544;22834;23114;23385;23703;24000;24298;24578;24850;25133;25420;25714;26020;26320;26609;26892;27178;27477;27771;28071;28366;28676;28952;29232;29535;29805;30124;30437;30731;31006;31288;31571;31862;32159;32463;32771;33066;33346;33628;33916;34210;34510;34823;35120;35398;35676;35955;36247;36539;36863;37163;37439;37733;38024;38297;38591;38886;39186;39480;39741;40038;40333;40616;40904;41221;41502;41785;42068;42354;42636;42930;43274;43555;43834;44133;44393;44694;44966;45260;45564;45865;46142;46435;46694;46987;47283;47536;47857;48139;48439;48716;48978;49273;49571;49855;50166;50433;50726;50991;51288;51560;51872;52150;52443;52736;53002;53293;53564;53872;54154;54442;54723;55016;55296;55530;55846;56139;56450;56727;56996;57274;57554;57837;58143;58426;58720;59014;59309;59572;59872;60164;60465;60727;61058;61328;61632;61918;62188;62499;62801;63088;63376;63665;63908;64201;64516;64811;65110;65400;65700;65967;66245;66538;66735;67081;67367;67662;67943;68236;68543;68823;69125;69455;69737;70013;70205;70578;70890;71172;71477;71779;72092;72360;72659;72950;73236;73542;73861;74151;74424;74720;74919;75271;75583;75831;76171;76453;76741;77011;77316;77599;77895;78189;78476;78762;79038;79323;79622;79896;80241;80528;80810;81087;81392;81669;81969;82269;82589;82880;83151;83434;83730;84038;84345;84645;84945;85239;85535;85811;86105;86416;86721;86954;87304;87586;87875;88169;88464;88769;89085;89374;89644;89941;90221;90521;90834;91138;91420;91713;91998;92279;92570;92880;93196;93473;93773;94056;94332;94581;94931;95232;95558;95846;96108;96389;96680;96996;97286;97580;97873;98162;98448;98742;99018;99329;0;99867;100158;100448;100733;101005;101293;101587;101891;102171;102469;102746;103010;103323;103605;103911;104197;104481;104776;105057;105346;105644;105957;106250;106534;106820;107097;107386;107687;107980;108274;108579;108861;109137;109420;109707;110013;110323;110622;110914;111197;111463;111747;112054;112337;112643;112942;113234;113505;113803;114077;114365;114661;114933;115230;115487;115756;115987;116316;116603;116889;117156;117448;117722;117994;118271;118559;118856;119153;119465;119743;120030;120324;120623;120936;121247;121554;121829;122113;122400;122699;122998;123315;123613;123888;124170;124452;124728;125004;125304;125596;125877;126152;126415;126693;126973;127251;127554;127843;0;128372;128637;128909;129179;129471;129744;130004;130270;130520;130759;131025;131277;131533;131799;132069;132205;132579;132825;133084;133302;133606;133881;134146;134414;134687;134942;135196;135447;135732;136011;136297;136567;136851;137133;137401;137680;137957;138252;138545;138838;139104;139395;139671;139960;140250;140545;140816;141089;141374;141637;141893;142141;142426;142696;142963;143216;143467;143714;143974;144235;144508;144781;145017;145333;145600;145820;146123;146395;146683;146960;147240;147517;147786;148006;148314;148586;148861;149151;149431;149719;149980;150249;150516;150800;151073;151360;151647;151921;152180;152464;152734;153015;153307;153579;153877;154143;154412;154695;154958;155225;155519;155813;156082;156350;156602;156855;157119;157377;157643;157906;158181;158439;158681;158927;159180;159428;159687;159948;160212;160456;160707;160957;161207;161451;161710;161980;162258;162488;162787;163044;163314;163579;163849;164129;164412;164679;164943;165197;165451;165704;165979;166208;166520;166791;167064;167290;167590;167870;168140;168434;168734;169015;169301;169579;169854;170147;170442;170661;171009;171310;171589;171858;172150;172419;172708;173006;173288;173565;173846;174128;174387;174669;174957;175258;175546;175820;176097;176367;176650;176914;177184;177477;177747;177978;178254;178531;178791;179023;179293;179597;179879;180135;180384;180658;180912;181184;181473;181762;182035;182306;0;182848;183127;183423;183729;184019;184313;184601;184887;185163;185460;185762;186084;186379;186654;186946;187246;187512;187806;188078;188413;188714;188982;189270;189565;189863;190170;190466;190759;191052;191335;191615;191814;192212;192511;192815;193100;193362;193639;193944;194231;194508;194804;195109;195367;195644;195913;196216;196508;196783;197082;197368;197624;197883;198175;198452;198740;199024;199291;199572;199844;200075;200372;200659;200943;201224;201495;201757;202018;202291;202563;202844;203128;203415;203690;203970;204250;204525;204800;205094;205403;205686;205969;206240;206519;206794;207076;207367;207671;207957;208230;208500;208773;209048;209339;209631;209923;210207;210484;210762;211036;211314;211602;211899;212177;212454;212728;213009;213276;213498;213843;214126;214414;214689;214960;215232;215509;215796;216090;216379;216659;216941;217211;217500;217774;218068;218356;218655;218925;219199;219481;219764;220044;220351;220641;220929;221161;221477;221758;222029;222322;222617;222903;223176;223461;223735;223998;224276;224566;224863;225144;225424;225696;225973;226243;226523;226710;227094;227376;227657;227929;228189;228466;228754;229044;229324;229609;229888;230164;230432;230710;230999;231304;231589;231864;232140;232397;232680;232962;233252;233520;233814;234102;234366;234635;234906;235187;235494;235777;236057;236340;236615;236879;237152;237433;237731;238017;238280;238562;238835;239108;239383;239665;239946;240200;240490;240763;241017;241268;241537;241803;242064;242324;242582;242831;243084;243341;243598;243854;244123;244400;244682;244938;245198;245466;245686;246014;246301;246596;246889;247150;247418;247692;247967;248247;248538;248827;249109;249386;249659;249930;250223;250510;250806;251112;251395;251661;251945;252229;252535;252818;253108;253411;253686;253960;254234;254532;254834;255118;255403;255693;255973;256246;256522;256802;257104;257387;257661;257921;258176;258377;258687;258954;259227;259495;259762;260026;260290;260536;260803;261079;261362;261640;261919;262184;262466;262737;263001;263297;263588;263877;264158;264453;264724;265010;265300;265598;265893;266187;266468;266756;267050;267323;267615;267926;268207;268493;268773;269052;269336;269620;269907;270202;270497;270777;271044;271321;271608;271902;272149;272482;272788;273074;273345;273626;273878;274211;274509;274802;275081;275351;275622;275901;276184;276467;276752;277049;277341;277601;277874;278165;278467;278764;279048;279318;279533;279857;280163;280445;280751;281061;281339;281620;281897;282169;282450;282750;283031;283325;283624;283851;284153;284440;284710;285007;285313;285588;285876;286147;286427;286716;286985;287286;287608;287897;288162;288456;288744;289027;289303;289614;289922;290210;290491;290754;291062;291339;291632;291925;292217;292506;292801;293060;293348;293648;293945;294209;294520;294805;295078;295364;295652;295964;296251;296550;296829;297105;297387;297675;297969;298271;298576;298819;299157;299423;299707;300000;300293;300612;300894;301161;301442;301733;302015;302294;302590;302897;303192;303456;303733;304012;304306;304587;304872;305162;305441;305650;305987;306274;306574;306893;307186;307464;307692;308004;308303;308572;308861;309163;309467;309734;310003;310284;310572;310860;311147;311440;311731;312012;312286;312554;312766;313128;313443;313745;314028;314310;314616;314887;315180;315476;315779;316085;316365;316632;316929;317170;317510;317726;318096;318374;318679;318949;319155;319535;319838;320144;320438;320725;321025;321161;321596;321903;322214;322510;322796;323078;323380;323665;323978;324284;324589;324883;325168;325438;325733;326020;326333;326637;326926;327227;327504;327751;328088;328357;328690;328994;329279;329560;329848;330149;330460;330754;331059;331350;331642;331926;332220;332519;332835;333136;333433;333711;333991;334282;334576;334895;335196;335481;335766;336042;336323;336617;336911;337214;337523;337813;338087;338370;338658;338959;339276;339570;339877;340146;340428;340716;341011;341328;341617;341913;342223;342486;342763;343051;343340;343655;343933;344233;344497;344780;345062;345350;345655;345954;346262;346533;346751;347089;347406;347709;347997;348303;348596;348888;349159;349442;349742;350063;350345;350631;350891;351202;351427;351759;352047;352326;352668;352941;353194;353480;353767;354064;354358;354657;354918;355255;355521;355795;356097;356395;356692;356984;357281;357548;357838;358136;358419;358720;359037;359301;359587;359843;360123;360421;360695;360988;361277;361577;361848;362118;362392;362683;362977;363267;363556;363829;364110;364403;364683;364974;365280;365591;365862;366142;366431;366731;367012;367314;367620;367910;368198;368484;368776;369058;369358;369665;369962;370231;370508;370794;371079;371353;371651;371954;372252;372511;372788;373070;373377;373657;373947;374207;374545;374808;375075;375362;375662;375946;376234;376515;376812;377015;377359;377636;377955;378243;378542;378827;379113;379377;379666;379959;380262;380548;380836;381112;381388;381664;381945;382259;382543;382848;383121;383391;383678;383961;384251;384546;384866;385145;385424;385709;385989;386296;386584;386891;387172;387472;387765;388024;388325;388606;388880;389227;389514;389796;390089;390281;390666;390989;391300;391577;391861;392142;392429;392717;392954;393317;393613;393895;394197;394458;394739;395034;395334;395635;395929;396209;396504;396798;397069;0;397485;397945;398248;398521;398792;399092;399386;399661;399956;400256;400555;400830;401101;401389;401707;402013;402267;402599;402872;403068;403458;403741;404036;404352;404636;404918;405206;405493;405770;406070;406359;406669;406942;407241;407472;407798;408086;408355;408694;408970;409253;409538;409833;410110;410410;410715;411008;411306;411586;411855;412143;412462;412749;413045;413337;413626;413906;414184;414472;414783;415093;415371;415642;415930;416212;416489;416783;417086;417378;417670;417947;418222;418510;418799;419092;419386;419694;419972;420257;420500;420808;421104;421420;421714;421938;422260;422543;422759;423102;423400;423701;423999;424293;424553;424835;425137;425445;425724;426026;426330;426612;426875;427163;427457;427762;428065;428357;428639;428928;429227;429498;429798;430120;430403;430692;430974;431269;431549;431843;432146;432441;432749;433032;433304;433601;0;434148;434448;434745;435048;435307;435594;435887;0;436445;436771;437054;437337;437634;437909;438204;438505;438800;439094;439405;439676;439959;440247;440557;440865;441170;441470;441751;442047;442357;442564;442934;443240;443546;443828;444128;444406;444651;444998;445300;445565;445900;446169;446445;446733;447051;447335;447644;447916;448203;448486;448773;449075;449388;449701;449975;450278;450543;450776;451128;451451;451761;452040;452333;452614;452898;453183;453446;453785;454087;454385;454595;454937;455248;455534;455822;456123;456437;456707;456989;457270;457583;457893;458109;458460;458767;459040;459318;459619;459896;460212;460512;460794;461101;461370;461672;461948;462247;462552;462870;463136;463396;463705;463992;464293;464600;464895;465193;465480;465758;466044;466345;466642;466946;467242;467541;467817;468100;468409;468647;468998;469303;469616;469897;470168;470462;470768;471070;471392;471663;471969;472256;472541;472823;473148;473438;473727;474013;474313;474585;474880;475187;475482;475802;476078;476357;476658;476949;477244;477537;477850;478132;478432;478697;478991;479267;479566;479865;480155;480446;480718;480996;481288;481575;481892;482176;482460;482740;483021;483287;483570;483868;484158;484445;484727;485009;485292;485579;485873;486187;486508;486783;487069;487362;487670;487950;488188;488566;488882;489157;489433;489726;490040;490327;490646;490905;491225;491508;491791;492078;492380;492685;492985;493281;493561;493855;494133;494425;494720;495031;495307;495589;495865;496141;496430;0;497006;497310;497616;497883;498171;498466;498741;499053;499364;499639;499923;500205;500486;500783;501082;501376;501682;501975;502253;502537;502821;503122;503447;503746;504032;504309;504605;504875;505162;505494;505763;506061;506339;506620;506909;507196;507490;507790;508097;508392;508681;508960;509255;509557;509863;510158;510428;510744;511046;511308;511609;511902;512226;512502;512790;513078;513374;513671;513949;514267;514561;514859;515136;515412;515694;516012;516274;516606;516906;517203;517488;517769;518059;518374;518665;518980;519252;519547;519835;520098;520406;520705;520922;521280;521580;521852;522144;522463;522751;523054;523369;523645;523934;524216;524528;524839;525147;525428;525659;526010;526293;526582;526876;527175;527484;527774;528057;528344;528627;528926;529232;529537;529833;530126;530408;530697;530990;531292;531603;531905;532197;532479;532766;532998;533349;533649;533944;534245;534528;534825;535096;535397;535704;536002;536300;536584;536865;537152;537441;537747;538065;538359;538647;538930;539217;539526;539823;540105;540406;540707;540992;541270;541557;541852;542163;542468;542732;543054;543345;543629;543917;544237;544523;544844;545033;545393;545692;545974;546256;546532;546702;547151;547419;547696;547971;548268;548566;548860;549122;549453;549723;550008;550302;550572;550883;551150;551470;551755;552047;552296;552613;552912;553216;553523;553830;554093;554376;554657;554957;555258;555552;555851;556145;556426;556703;556992;557293;557601;557898;558179;558462;558765;559040;559332;559634;559934;560211;560515;560784;561091;561368;561666;561955;562262;562504;562757;563093;563373;563661;563981;564258;564542;564844;565100;565404;565675;565975;566199;566557;566840;567122;0;567629;567957;568258;568561;568854;569145;569380;569715;569996;570297;570603;570892;571197;571478;571770;572072;572361;572685;572990;573268;573548;573830;574130;574370;574723;575031;575324;575617;575896;576189;576483;576813;577096;577389;577678;577961;578248;578541;578850;579141;579389;579730;580027;580298;580581;580882;581180;581482;581768;582057;582339;582625;582850;583142;583474;583755;584051;584303;584551;584854;585126;585388;585637;585952;586169;586477;586726;586983;587249;587523;587792;588063;588328;588586;588862;589120;589403;589692;589889;590268;590539;590807;591094;591313;591654;591949;592235;592523;592794;593025;593341;593634;593940;594237;594504;594807;595078;595355;595638;595942;596226;596532;596820;597088;597353;597612;597878;598134;598404;598661;598920;599172;599419;599657;599900;600167;600433;600686;600957;601225;601488;601752;602013;602280;602518;602793;603120;603405;603670;603937;604214;604511;604795;605093;605409;605689;605960;606243;606536;606829;607127;607416;607715;607987;608263;608510;608803;609067;609361;609651;609941;610203;610495;610760;611056;611348;611658;611887;612206;612494;612770;613062;613334;613607;613919;614209;614448;614770;615029;615305;615605;615916;616203;616479;616743;617005;617320;617607;617882;618183;618480;618759;619022;619302;619584;619889;620198;620476;620764;621041;621295;621598;621881;622181;622492;622762;623031;623322;623546;623854;624132;624419;624700;624983;625247;625519;625788;626089;626373;626651;626947;627216;627492;627780;628045;628325;628620;628915;629100;629433;629705;629964;630228;630432;630741;631044;631319;631552;631850;632100;632319;632639;632908;633136;633446;633719;633980;634239;634500;634779;635057;635342;635635;635919;636189;636473;636766;637045;637351;637652;637933;638221;638504;638782;639081;639381;639681;639981;640283;640570;640867;641115;641426;641709;642004;642280;642529;642825;643100;643343;643681;643937;644222;644500;644750;644971;645235;645496;645815;646035;646307;646599;646873;647121;647357;647608;647885;648154;648420;648688;648922;